"Time, Y-Force, Work integrand, Mass, Mass error"
1e-05 -3.38095240692837e-09 -3.32480673050683e-11 0.785390488322165 NaN
0.001 -1.66919294226631e-05 -3.45644808822233e-11 0.785390488322165 NaN
0.002 -6.09833522862147e-05 -6.81420210554384e-10 0.785390488322165 2.82718734472309e-16
0.00300000000000001 -0.000131821207036253 -3.0546852549068e-09 0.785390488322165 NaN
0.00400000000000001 -0.000229378601321883 -9.01232787692535e-09 0.785390488322165 NaN
0.00499999999999996 -0.000353407913145531 -2.12947814183019e-08 0.785390488322165 1.41359367236154e-16
0.00599999999999992 -0.000503771992166335 -4.24258079146549e-08 0.785390488322165 2.82718734472309e-16
0.00699999999999988 -0.000680450271872246 -7.63591004096769e-08 0.785390488322165 NaN
0.00799999999999984 -0.000883433553724444 -1.26999397118263e-07 0.785390488322165 2.82718734472309e-16
0.0089999999999998 -0.00111270298452659 -1.99117306723352e-07 0.785390488322165 2.82718734472309e-16
0.00999999999999976 -0.00136829284620354 -2.98000072165719e-07 0.785390488322165 NaN
0.0109999999999997 -0.0016501992535698 -4.29473279831265e-07 0.785390488322165 2.82718734472309e-16
0.0119999999999997 -0.001958470810413 -5.9990378347731e-07 0.785390488322165 1.41359367236154e-16
0.0129999999999996 -0.0022931455774291 -8.16076252750045e-07 0.785390488322165 NaN
0.0139999999999996 -0.00265424741617082 -1.08528766046409e-06 0.785390488322165 2.82718734472309e-16
0.0149999999999996 -0.00304182937846953 -1.4157283447073e-06 0.785390488322165 2.82718734472309e-16
0.0159999999999995 -0.00345593385108245 -1.81565702535302e-06 0.785390488322165 1.41359367236154e-16
0.0169999999999995 -0.00389659871283321 -2.2942614002399e-06 0.785390488322165 1.41359367236154e-16
0.0179999999999994 -0.00436388369162088 -2.86111963602488e-06 0.785390488322165 2.82718734472309e-16
0.0189999999999994 -0.00485784357737984 -3.52624579655347e-06 0.785390488322165 1.41359367236154e-16
0.0199999999999994 -0.00537852064451982 -4.30013365204217e-06 0.785390488322165 1.41359367236154e-16
0.0209999999999993 -0.00592596860492201 -5.19387744843565e-06 0.785390488322165 2.82718734472309e-16
0.0219999999999993 -0.00650024583623754 -6.21941973117691e-06 0.785390488322165 2.82718734472309e-16
0.0229999999999992 -0.00710139932569476 -7.38867204055221e-06 0.785390488322165 4.24078101708463e-16
0.0239999999999992 -0.00772947869658047 -8.71464672626103e-06 0.785390488322165 2.82718734472309e-16
0.0249999999999992 -0.00838454503445085 -1.0210423261622e-05 0.785390488322165 1.41359367236154e-16
0.0259999999999991 -0.00906665631422499 -1.1889439022519e-05 0.785390488322165 NaN
0.0269999999999991 -0.00977586073583581 -1.37664942270257e-05 0.785390488322165 1.41359367236154e-16
0.027999999999999 -0.0105122091001935 -1.5856198117099e-05 0.785390488322165 2.82718734472309e-16
0.028999999999999 -0.0112757584171863 -1.8173713999009e-05 0.785390488322165 1.41359367236154e-16
0.0299999999999989 -0.0120665619353151 -2.07350437855403e-05 0.785390488322165 2.82718734472309e-16
0.0309999999999989 -0.0128846667935729 -2.35563134622294e-05 0.785390488322165 2.82718734472309e-16
0.0319999999999991 -0.0137301231691822 -2.66547952081746e-05 0.785390488322165 NaN
0.0329999999999994 -0.0146029869961648 -3.00478928126312e-05 0.785390488322165 2.82718734472309e-16
0.0339999999999997 -0.0155033122355537 -3.37527198331321e-05 0.785390488322165 2.82718734472309e-16
0.035 -0.0164311463320921 -3.77887965013167e-05 0.785390488322165 2.82718734472309e-16
0.0360000000000004 -0.0173865348029683 -4.21741262150999e-05 0.785390488322165 2.82718734472309e-16
0.0370000000000007 -0.0183695259216705 -4.69288695810963e-05 0.785390488322165 1.41359367236154e-16
0.038000000000001 -0.0193801690872419 -5.20722895980194e-05 0.785390488322165 2.82718734472309e-16
0.0390000000000013 -0.0204185098402707 -5.76255053994154e-05 0.785390488322165 2.82718734472309e-16
0.0400000000000016 -0.0214845900852545 -6.36088846180938e-05 0.785390488322165 2.82718734472309e-16
0.0410000000000019 -0.0225784525773101 -7.00447783171174e-05 0.785390488322165 2.82718734472309e-16
0.0420000000000022 -0.0237001430560415 -7.69539507470378e-05 0.785390488322165 2.82718734472309e-16
0.0430000000000025 -0.0248497066303468 -8.43594513452207e-05 0.785390488322165 2.82718734472309e-16
0.0440000000000028 -0.026027184104235 -9.22846209448352e-05 0.785390488322165 4.24078101708463e-16
0.0450000000000031 -0.0272326120784978 -0.000100752557711109 0.785390488322165 4.24078101708463e-16
0.0460000000000034 -0.0284660267299035 -0.000109787155923663 0.785390488322165 4.24078101708463e-16
0.0470000000000037 -0.0297274654847062 -0.000119412865425245 0.785390488322165 2.82718734472309e-16
0.048000000000004 -0.0310169653335723 -0.000129654765712639 0.785390488322165 2.82718734472309e-16
0.0490000000000043 -0.0323345595108915 -0.000140537918567704 0.785390488322165 4.24078101708463e-16
0.0500000000000046 -0.0336802773229916 -0.000152088560773686 0.785390488322165 4.24078101708463e-16
0.0510000000000049 -0.0350541469577301 -0.000164333551705073 0.785390488322165 2.82718734472309e-16
0.0520000000000053 -0.0364561987617851 -0.00017729866081645 0.785390488322165 2.82718734472309e-16
0.0530000000000056 -0.037886464837678 -0.000191011851819071 0.785390488322165 2.82718734472309e-16
0.0540000000000059 -0.0393449754234982 -0.000205501010751112 0.785390488322165 2.82718734472309e-16
0.0550000000000062 -0.0408317545188073 -0.000220794279460569 0.785390488322165 2.82718734472309e-16
0.0560000000000065 -0.0423468189704543 -0.000236920211345026 0.785390488322165 2.82718734472309e-16
0.0570000000000068 -0.0438901819029773 -0.000253908402013982 0.785390488322165 4.24078101708463e-16
0.0580000000000071 -0.0454618582755906 -0.000271788080994789 0.785390488322165 2.82718734472309e-16
0.0590000000000074 -0.0470618687534898 -0.000290589684922855 0.785390488322165 4.24078101708463e-16
0.0600000000000077 -0.0486902384406118 -0.000310343611992371 0.785390488322165 5.65437468944618e-16
0.061000000000008 -0.0503469913401524 -0.000331080819178972 0.785390488322165 2.82718734472309e-16
0.0620000000000083 -0.0520321443485976 -0.000352833539935066 0.785390488322165 2.82718734472309e-16
0.0630000000000083 -0.0537457029443722 -0.000375632622748673 0.785390488322165 5.65437468944618e-16
0.0640000000000079 -0.0554876621333484 -0.000399511249140075 0.785390488322165 4.24078101708463e-16
0.0650000000000075 -0.0572580108333582 -0.000424501512307177 0.785390488322165 4.24078101708463e-16
0.0660000000000071 -0.059056738080919 -0.000450636276435046 0.785390488322165 2.82718734472309e-16
0.0670000000000067 -0.0608838376023915 -0.000477950162205171 0.785390488322165 4.24078101708463e-16
0.0680000000000063 -0.0627393095456323 -0.000506475688459559 0.785390488322165 5.65437468944618e-16
0.0690000000000059 -0.0646231590351256 -0.000536248636418421 0.785390488322165 4.24078101708463e-16
0.0700000000000056 -0.0665353925652283 -0.000567303231311198 0.785390488322165 1.41359367236154e-16
0.0710000000000052 -0.0684760133032096 -0.000599675070169239 0.785390488322165 5.65437468944618e-16
0.0720000000000048 -0.0704450177555369 -0.000633399611210367 0.785390488322165 2.82718734472309e-16
0.0730000000000044 -0.072442393406476 -0.000668513044524935 0.785390488322165 2.82718734472309e-16
0.074000000000004 -0.0744681190007146 -0.000705051843640461 0.785390488322165 4.24078101708463e-16
0.0750000000000036 -0.0765221657760016 -0.000743052839997066 0.785390488322165 2.82718734472309e-16
0.0760000000000032 -0.0786045000473496 -0.000782552087017704 0.785390488322165 5.65437468944618e-16
0.0770000000000028 -0.0807150857001702 -0.000823587884884847 0.785390488322165 2.82718734472309e-16
0.0780000000000025 -0.0828538862364638 -0.000866197825047557 0.785390488322165 4.24078101708463e-16
0.0790000000000021 -0.0850208659432248 -0.000910419988141536 0.785390488322165 4.24078101708463e-16
0.0800000000000017 -0.0872159898574996 -0.00095629278724299 0.785390488322165 2.82718734472309e-16
0.0810000000000013 -0.0894392233785464 -0.00100385469728306 0.785390488322165 4.24078101708463e-16
0.0820000000000009 -0.0916905305609141 -0.00105314565729353 0.785390488322165 2.82718734472309e-16
0.0830000000000005 -0.0939698730659515 -0.00110420467519327 0.785390488322165 5.65437468944618e-16
0.0840000000000001 -0.0962772083597603 -0.00115707178450632 0.785390488322165 2.82718734472309e-16
0.0849999999999997 -0.0986124885517548 -0.00121178721999053 0.785390488322165 5.65437468944618e-16
0.0859999999999994 -0.100975659506954 -0.0012683908278634 0.785390488322165 5.65437468944618e-16
0.086999999999999 -0.103366660928451 -0.00132692372518396 0.785390488322165 4.24078101708463e-16
0.0879999999999986 -0.105785426292444 -0.0013874267472824 0.785390488322165 2.82718734472309e-16
0.0889999999999982 -0.108231884183802 -0.00144994039348129 0.785390488322165 2.82718734472309e-16
0.0899999999999978 -0.110705959012117 -0.00151450655482793 0.785390488322165 2.82718734472309e-16
0.0909999999999974 -0.113207572289864 -0.00158116671135483 0.785390488322165 4.24078101708463e-16
0.091999999999997 -0.11573664341242 -0.00164996254202884 0.785390488322165 2.82718734472309e-16
0.0929999999999966 -0.118293090131683 -0.00172093600717865 0.785390488322165 2.82718734472309e-16
0.0939999999999963 -0.120876828224532 -0.00179412960414491 0.785390488322165 4.24078101708463e-16
0.0949999999999959 -0.123487771239308 -0.00186958607093854 0.785390488322165 4.24078101708463e-16
0.0959999999999955 -0.126125829463884 -0.0019473473111882 0.785390488322165 4.24078101708463e-16
0.0969999999999951 -0.128790908994675 -0.00202745705830865 0.785390488322165 4.24078101708463e-16
0.0979999999999947 -0.131482910690591 -0.00210995792692648 0.785390488322165 2.82718734472309e-16
0.0989999999999943 -0.1342017296306 -0.00219489311520391 0.785390488322165 2.82718734472309e-16
0.0999999999999939 -0.136947254280949 -0.00228230566813989 0.785390488322165 2.82718734472309e-16
0.100999999999994 -0.139719366304272 -0.00237223952805785 0.785390488322165 2.82718734472309e-16
0.101999999999993 -0.142517940677442 -0.0024647378209188 0.785390488322165 2.82718734472309e-16
0.102999999999993 -0.145342845962913 -0.00255984381636487 0.785390488322165 4.24078101708463e-16
0.103999999999992 -0.148193944802365 -0.00265760166147117 0.785390488322165 5.65437468944618e-16
0.104999999999992 -0.151071094933656 -0.00275805432634352 0.785390488322165 2.82718734472309e-16
0.105999999999992 -0.153974149754053 -0.00286124589870879 0.785390488322165 4.24078101708463e-16
0.106999999999991 -0.156902959177806 -0.00296721969573391 0.785390488322165 4.24078101708463e-16
0.107999999999991 -0.159857369718344 -0.00307601981032679 0.785390488322165 2.82718734472309e-16
0.10899999999999 -0.162837224524029 -0.00318769031390886 0.785390488322165 2.82718734472309e-16
0.10999999999999 -0.16584236271245 -0.00330227443861425 0.785390488322165 2.82718734472309e-16
0.11099999999999 -0.168872618354927 -0.00341981665475419 0.785390488322165 2.82718734472309e-16
0.111999999999989 -0.171927819288442 -0.00354036005187525 0.785390488322165 5.65437468944618e-16
0.112999999999989 -0.175007785689429 -0.00366394886042934 0.785390488322165 4.24078101708463e-16
0.113999999999988 -0.178112329404208 -0.00379062637410793 0.785390488322165 2.82718734472309e-16
0.114999999999988 -0.181241253152638 -0.00392043574240683 0.785390488322165 2.82718734472309e-16
0.115999999999988 -0.184394351082208 -0.00405342088430627 0.785390488322165 2.82718734472309e-16
0.116999999999987 -0.18757140897841 -0.00418962386039817 0.785390488322165 2.82718734472309e-16
0.117999999999987 -0.190772205722203 -0.0043290884805364 0.785390488322165 4.24078101708463e-16
0.118999999999987 -0.193996514057277 -0.00447185707710723 0.785390488322165 4.24078101708463e-16
0.119999999999986 -0.197244101532402 -0.00461797194679375 0.785390488322165 2.82718734472309e-16
0.120999999999986 -0.200514730676472 -0.00476747537495209 0.785390488322165 4.24078101708463e-16
0.121999999999985 -0.203808158479214 -0.00492040944697331 0.785390488322165 2.82718734472309e-16
0.122999999999985 -0.207124135391828 -0.00507681627492293 0.785390488322165 4.24078101708463e-16
0.123999999999985 -0.210462403813089 -0.00523673699632113 0.785390488322165 4.24078101708463e-16
0.124999999999984 -0.21382269654638 -0.00540021315054451 0.785390488322165 4.24078101708463e-16
0.125999999999985 -0.217204735588872 -0.00556728529701822 0.785390488322165 2.82718734472309e-16
0.126999999999986 -0.220608231575135 -0.0057379935370932 0.785390488322165 4.24078101708463e-16
0.127999999999987 -0.224032883800222 -0.00591237823154622 0.785390488322165 1.41359367236154e-16
0.128999999999988 -0.227478381128064 -0.0060904784585788 0.785390488322165 2.82718734472309e-16
0.129999999999989 -0.230944403416133 -0.00627233287336881 0.785390488322165 4.24078101708463e-16
0.13099999999999 -0.234430623185556 -0.00645798029163314 0.785390488322165 5.65437468944618e-16
0.131999999999991 -0.2379367070118 -0.00664745900351044 0.785390488322165 5.65437468944618e-16
0.132999999999992 -0.241462315890065 -0.00684080548447275 0.785390488322165 NaN
0.133999999999993 -0.245007105136114 -0.00703805727554629 0.785390488322165 2.82718734472309e-16
0.134999999999994 -0.248570722707575 -0.00723925095902128 0.785390488322165 4.24078101708463e-16
0.135999999999995 -0.252152806545494 -0.00744442221526948 0.785390488322165 2.82718734472309e-16
0.136999999999996 -0.255752981064649 -0.00765360579294755 0.785390488322165 2.82718734472309e-16
0.137999999999997 -0.259370853879862 -0.00786683637907187 0.785390488322165 4.24078101708463e-16
0.138999999999998 -0.263006012766819 -0.00808414669958979 0.785390488322165 4.24078101708463e-16
0.139999999999999 -0.266658023606579 -0.00830556952176348 0.785390488322165 4.24078101708463e-16
0.141 -0.270326430625333 -0.00853113524710825 0.785390488322165 2.82718734472309e-16
0.142000000000001 -0.274010757532064 -0.00876087444128648 0.785390488322165 2.82718734472309e-16
0.143000000000002 -0.277710511132835 -0.00899481543984665 0.785390488322165 2.82718734472309e-16
0.144000000000003 -0.28142518539094 -0.00923298667036743 0.785390488322165 2.82718734472309e-16
0.145000000000004 -0.285154266165234 -0.00947541456147893 0.785390488322165 4.24078101708463e-16
0.146000000000005 -0.2888972356597 -0.00972212585540899 0.785390488322165 2.82718734472309e-16
0.147000000000006 -0.292653575383943 -0.00997314519899878 0.785390488322165 5.65437468944618e-16
0.148000000000007 -0.29642276729494 -0.0102284975542302 0.785390488322165 2.82718734472309e-16
0.149000000000008 -0.30020429273821 -0.010488206468182 0.785390488322165 2.82718734472309e-16
0.150000000000009 -0.303997628852956 -0.010752294671087 0.785390488322165 2.82718734472309e-16
0.15100000000001 -0.30780224284913 -0.0110207841897152 0.785390488322165 5.65437468944618e-16
0.152000000000011 -0.311617584315378 -0.0112936943817452 0.785390488322165 2.82718734472309e-16
0.153000000000012 -0.315443076436155 -0.0115710448370341 0.785390488322165 2.82718734472309e-16
0.154000000000013 -0.319278106529728 -0.0118528514067452 0.785390488322165 2.82718734472309e-16
0.155000000000014 -0.3231220170596 -0.0121391291094592 0.785390488322165 2.82718734472309e-16
0.156000000000015 -0.326974097576796 -0.0124298890018119 0.785390488322165 2.82718734472309e-16
0.157000000000016 -0.33083357913133 -0.0127251396383214 0.785390488322165 2.82718734472309e-16
0.158000000000017 -0.334699631847199 -0.0130248867488972 0.785390488322165 2.82718734472309e-16
0.159000000000018 -0.338571366291507 -0.0133291329278245 0.785390488322165 2.82718734472309e-16
0.160000000000019 -0.342447840219606 -0.0136378766370954 0.785390488322165 2.82718734472309e-16
0.16100000000002 -0.346328069418149 -0.0139511137377006 0.785390488322165 2.82718734472309e-16
0.162000000000021 -0.350211044041851 -0.0142688385983286 0.785390488322165 2.82718734472309e-16
0.163000000000022 -0.354095747555114 -0.0145910419384826 0.785390488322165 1.41359367236154e-16
0.164000000000023 -0.357981177342698 -0.014917713829303 0.785390488322165 4.24078101708463e-16
0.165000000000024 -0.361866363799077 -0.0152488439591227 0.785390488322165 1.41359367236154e-16
0.166000000000025 -0.365750384182274 -0.0155844216166461 0.785390488322165 2.82718734472309e-16
0.167000000000026 -0.369632368537332 -0.0159244354798467 0.785390488322165 2.82718734472309e-16
0.168000000000027 -0.373511493975068 -0.0162688756329454 0.785390488322165 2.82718734472309e-16
0.169000000000028 -0.377386964884911 -0.0166177307724495 0.785390488322165 2.82718734472309e-16
0.170000000000029 -0.38125797907667 -0.0169709880861008 0.785390488322165 2.82718734472309e-16
0.17100000000003 -0.385123680273821 -0.0173286311241723 0.785390488322165 1.41359367236154e-16
0.172000000000031 -0.388983099422322 -0.017690637801791 0.785390488322165 2.82718734472309e-16
0.173000000000032 -0.392835090652165 -0.0180569771788692 0.785390488322165 2.82718734472309e-16
0.174000000000033 -0.396678266311131 -0.018427607389057 0.785390488322165 4.24078101708463e-16
0.175000000000034 -0.400510939619569 -0.0188024720147496 0.785390488322165 4.24078101708463e-16
0.176000000000035 -0.404331080666035 -0.0191814974120402 0.785390488322165 2.82718734472309e-16
0.177000000000036 -0.408136292231873 -0.019564592236835 0.785390488322165 2.82718734472309e-16
0.178000000000037 -0.41192381050247 -0.0199516460075401 0.785390488322165 4.24078101708463e-16
0.179000000000038 -0.415690532880044 -0.0203425287332488 0.785390488322165 4.24078101708463e-16
0.180000000000039 -0.419433072912714 -0.0207370933410523 0.785390488322165 2.82718734472309e-16
0.18100000000004 -0.423147840059716 -0.0211351780218387 0.785390488322165 2.82718734472309e-16
0.182000000000041 -0.426831139640854 -0.0215366104971825 0.785390488322165 2.82718734472309e-16
0.183000000000042 -0.430479285921875 -0.0219412112415381 0.785390488322165 2.82718734472309e-16
0.184000000000043 -0.434088720872092 -0.0223488005652375 0.785390488322165 2.82718734472309e-16
0.185000000000044 -0.437656129631961 -0.0227592027521343 0.785390488322165 5.65437468944618e-16
0.186000000000045 -0.441178545889844 -0.023172250558777 0.785390488322165 2.82718734472309e-16
0.187000000000046 -0.444653438815362 -0.0235877919626398 0.785390488322165 2.82718734472309e-16
0.188000000000047 -0.448078777531348 -0.0240056920209687 0.785390488322165 2.82718734472309e-16
0.189000000000048 -0.451453069270322 -0.0244258373035082 0.785390488322165 4.24078101708463e-16
0.190000000000049 -0.454775370217682 -0.0248481353249977 0.785390488322165 5.65437468944618e-16
0.19100000000005 -0.458045270407968 -0.0252725180294455 0.785390488322165 2.82718734472309e-16
0.192000000000051 -0.461262854851363 -0.025698937828345 0.785390488322165 5.65437468944618e-16
0.193000000000052 -0.464428646105874 -0.0261273688063475 0.785390488322165 4.24078101708463e-16
0.194000000000053 -0.467543532464637 -0.0265578023647869 0.785390488322165 4.24078101708463e-16
0.195000000000054 -0.470608688293442 -0.0269902448235859 0.785390488322165 5.65437468944618e-16
0.196000000000055 -0.473625491362863 -0.0274247136794046 0.785390488322165 2.82718734472309e-16
0.197000000000056 -0.476595442632176 -0.0278612344838224 0.785390488322165 4.24078101708463e-16
0.198000000000057 -0.479520092507974 -0.0282998369296665 0.785390488322165 2.82718734472309e-16
0.199000000000058 -0.482400976567387 -0.0287405524420912 0.785390488322165 2.82718734472309e-16
0.200000000000059 -0.485239563401313 -0.0291834113010111 0.785390488322165 2.82718734472309e-16
0.20100000000006 -0.488037214632435 -0.0296284396591289 0.785390488322165 5.65437468944618e-16
0.202000000000061 -0.490795157839978 -0.0300756587149934 0.785390488322165 2.82718734472309e-16
0.203000000000062 -0.493514470979466 -0.0305250835188479 0.785390488322165 2.82718734472309e-16
0.204000000000063 -0.496196077414858 -0.0309767228474803 0.785390488322165 2.82718734472309e-16
0.205000000000064 -0.498840749027483 -0.0314305774456138 0.785390488322165 5.65437468944618e-16
