"Time, Y-Force, Work integrand, Mass, Mass error"
1e-05 -5.36524158434304e-11 -2.77194532263329e-11 0.785268036957841 NaN
0.001 -1.36894442309687e-05 -2.62751738136172e-11 0.785268036957841 1.4138141021583e-16
0.002 -4.85269639182162e-05 -2.66962325084925e-10 0.78526803695784 4.24144230647489e-16
0.00300000000000001 -0.000112447854864306 -1.57633453928897e-09 0.78526803695784 4.24144230647489e-16
0.00400000000000001 -0.000200894324867029 -4.9625137427198e-09 0.78526803695784 4.24144230647489e-16
0.00499999999999996 -0.000314637743950463 -1.25109807637161e-08 0.78526803695784 5.65525640863318e-16
0.00599999999999992 -0.000451957012606807 -2.58514331222323e-08 0.78526803695784 2.82762820431659e-16
0.00699999999999988 -0.00061567954077979 -4.79840646776128e-08 0.78526803695784 4.24144230647489e-16
0.00799999999999984 -0.000805493316403005 -8.19035350264078e-08 0.78526803695784 7.06907051079148e-16
0.0089999999999998 -0.00102117675707292 -1.31232003089011e-07 0.78526803695784 7.06907051079148e-16
0.00999999999999976 -0.00126243156346262 -2.00234793773106e-07 0.785268036957841 NaN
0.0109999999999997 -0.00152915595454983 -2.9332034544496e-07 0.78526803695784 4.24144230647489e-16
0.0119999999999997 -0.00182191341094085 -4.15730650507208e-07 0.78526803695784 4.24144230647489e-16
0.0129999999999996 -0.00214063396627073 -5.73010014600283e-07 0.78526803695784 2.82762820431659e-16
0.0139999999999996 -0.0024857393124591 -7.71189788752039e-07 0.785268036957841 1.4138141021583e-16
0.0149999999999996 -0.00285683439707352 -1.01688331872262e-06 0.785268036957841 1.4138141021583e-16
0.0159999999999995 -0.00325439039626596 -1.31724515049816e-06 0.78526803695784 4.24144230647489e-16
0.0169999999999995 -0.00367805609443317 -1.67968468508032e-06 0.78526803695784 5.65525640863318e-16
0.0179999999999994 -0.00412839644648777 -2.11262113389e-06 0.78526803695784 5.65525640863318e-16
0.0189999999999994 -0.00460505333181571 -2.62430911438617e-06 0.78526803695784 5.65525640863318e-16
0.0199999999999994 -0.00510854813017558 -3.22393069935331e-06 0.78526803695784 4.24144230647489e-16
0.0209999999999993 -0.00563853272688719 -3.92089807260524e-06 0.78526803695784 2.82762820431659e-16
0.0219999999999993 -0.00619545290749091 -4.72570478738711e-06 0.78526803695784 5.65525640863318e-16
0.0229999999999992 -0.00677909017932232 -5.64845270300721e-06 0.78526803695784 5.65525640863318e-16
0.0239999999999992 -0.00738973465794768 -6.70072710394541e-06 0.78526803695784 5.65525640863318e-16
0.0249999999999992 -0.00802733444510839 -7.89381548380009e-06 0.78526803695784 7.06907051079148e-16
0.0259999999999991 -0.00869202974327066 -9.23963644395523e-06 0.78526803695784 4.24144230647489e-16
0.0269999999999991 -0.00938387240280747 -1.07511341617884e-05 0.78526803695784 2.82762820431659e-16
0.027999999999999 -0.0101029539707633 -1.24414295193257e-05 0.78526803695784 4.24144230647489e-16
0.028999999999999 -0.0108493198903911 -1.43238052468351e-05 0.78526803695784 4.24144230647489e-16
0.0299999999999989 -0.0116230841740379 -1.6412644314929e-05 0.785268036957841 1.4138141021583e-16
0.0309999999999989 -0.012424248168967 -1.87222572181338e-05 0.785268036957841 NaN
0.0319999999999991 -0.0132529522802871 -2.12682406382128e-05 0.785268036957841 1.4138141021583e-16
0.0329999999999994 -0.0141091902834666 -2.40661083596253e-05 0.78526803695784 4.24144230647489e-16
0.0339999999999997 -0.0149930962661875 -2.71312665093097e-05 0.78526803695784 4.24144230647489e-16
0.035 -0.0159046873575917 -3.0481450045125e-05 0.78526803695784 5.65525640863318e-16
0.0360000000000004 -0.0168440682613292 -3.41328796624146e-05 0.78526803695784 4.24144230647489e-16
0.0370000000000007 -0.017811277370739 -3.8103952787436e-05 0.78526803695784 4.24144230647489e-16
0.038000000000001 -0.0188063878763692 -4.24120317586499e-05 0.78526803695784 7.06907051079148e-16
0.0390000000000013 -0.0198294482931274 -4.70764767826789e-05 0.78526803695784 4.24144230647489e-16
0.0400000000000016 -0.0208805121745207 -5.2115767308623e-05 0.785268036957841 1.4138141021583e-16
0.0410000000000019 -0.0219596393861154 -5.75504598919151e-05 0.78526803695784 2.82762820431659e-16
0.0420000000000022 -0.0230668775362435 -6.33994559923706e-05 0.78526803695784 4.24144230647489e-16
0.0430000000000025 -0.0242022974147696 -6.96840196287964e-05 0.78526803695784 5.65525640863318e-16
0.0440000000000028 -0.0253659404588336 -7.64255103268159e-05 0.78526803695784 5.65525640863318e-16
0.0450000000000031 -0.026557876373282 -8.36453922702361e-05 0.78526803695784 4.24144230647489e-16
0.0460000000000034 -0.0277781343350892 -9.13655330011635e-05 0.78526803695784 2.82762820431659e-16
0.0470000000000037 -0.0290267766873572 -9.96086145904321e-05 0.785268036957841 NaN
0.048000000000004 -0.0303038254707031 -0.000108397821060105 0.78526803695784 2.82762820431659e-16
0.0490000000000043 -0.0316093410540117 -0.000117756352742488 0.78526803695784 2.82762820431659e-16
0.0500000000000046 -0.032943348291965 -0.000127708521984182 0.78526803695784 7.06907051079148e-16
0.0510000000000049 -0.0343059068428774 -0.000138279429326101 0.78526803695784 4.24144230647489e-16
0.0520000000000053 -0.0356970444797151 -0.000149492975730631 0.78526803695784 2.82762820431659e-16
0.0530000000000056 -0.0371168123566841 -0.000161375244218842 0.78526803695784 2.82762820431659e-16
0.0540000000000059 -0.0385652348207512 -0.000173952237091849 0.785268036957841 1.4138141021583e-16
0.0550000000000062 -0.040042350274184 -0.000187250199310551 0.78526803695784 4.24144230647489e-16
0.0560000000000065 -0.0415481786306646 -0.000201295893346322 0.785268036957841 NaN
0.0570000000000068 -0.0430827507186731 -0.000216117042571188 0.785268036957841 1.4138141021583e-16
0.0580000000000071 -0.0446460863660598 -0.000231740968756133 0.78526803695784 2.82762820431659e-16
0.0590000000000074 -0.0462382147512794 -0.000248196377799475 0.78526803695784 2.82762820431659e-16
0.0600000000000077 -0.0478591568624174 -0.000265511650471983 0.785268036957841 2.82762820431659e-16
0.061000000000008 -0.0495089390916112 -0.000283715924815273 0.78526803695784 2.82762820431659e-16
0.0620000000000083 -0.0511875790882412 -0.000302839454518995 0.785268036957841 NaN
0.0630000000000083 -0.0528950951934903 -0.000322911348821911 0.78526803695784 5.65525640863318e-16
0.0640000000000079 -0.054631497037583 -0.000343962991222663 0.78526803695784 2.82762820431659e-16
0.0650000000000075 -0.0563967927694026 -0.00036602470615307 0.78526803695784 2.82762820431659e-16
0.0660000000000071 -0.0581909842762994 -0.0003891275075383 0.78526803695784 2.82762820431659e-16
0.0670000000000067 -0.0600140726196271 -0.000413304334585328 0.78526803695784 2.82762820431659e-16
0.0680000000000063 -0.0618660559067166 -0.000438585662130986 0.785268036957841 1.4138141021583e-16
0.0690000000000059 -0.0637469323993605 -0.000465005492922332 0.78526803695784 4.24144230647489e-16
0.0700000000000056 -0.0656566990578974 -0.000492596027237123 0.785268036957841 NaN
0.0710000000000052 -0.0675953522690754 -0.000521390914048855 0.785268036957841 1.4138141021583e-16
0.0720000000000048 -0.0695628864762997 -0.000551423789508067 0.785268036957841 1.4138141021583e-16
0.0730000000000044 -0.0715592934800926 -0.000582728943328227 0.785268036957841 1.4138141021583e-16
0.074000000000004 -0.073584561752192 -0.000615341094593169 0.785268036957841 NaN
0.0750000000000036 -0.0756386756031138 -0.000649295312585178 0.785268036957841 1.4138141021583e-16
0.0760000000000032 -0.0777216157738115 -0.000684625958208423 0.785268036957841 NaN
0.0770000000000028 -0.0798333591336483 -0.000721369684617501 0.785268036957841 NaN
0.0780000000000025 -0.0819738803005586 -0.000759562288881145 0.785268036957841 NaN
0.0790000000000021 -0.0841431515297212 -0.000799240194810665 0.785268036957841 NaN
0.0800000000000017 -0.0863411443418592 -0.000840440057085699 0.785268036957841 1.4138141021583e-16
0.0810000000000013 -0.088567828802718 -0.000883198552988709 0.785268036957841 NaN
0.0820000000000009 -0.0908231741344004 -0.000927554004316166 0.785268036957841 1.4138141021583e-16
0.0830000000000005 -0.0931071469958091 -0.000973543459238026 0.78526803695784 2.82762820431659e-16
0.0840000000000001 -0.0954197108819794 -0.00102120538024979 0.785268036957841 1.4138141021583e-16
0.0849999999999997 -0.097760823779914 -0.00107057820290597 0.785268036957841 1.4138141021583e-16
0.0859999999999994 -0.100130437075185 -0.00112169995755541 0.785268036957841 1.4138141021583e-16
0.086999999999999 -0.1025284935297 -0.00117461017083922 0.785268036957841 1.4138141021583e-16
0.0879999999999986 -0.104954926731623 -0.00122934784876102 0.78526803695784 2.82762820431659e-16
0.0889999999999982 -0.107409660281449 -0.00128595171159262 0.785268036957841 1.4138141021583e-16
0.0899999999999978 -0.10989260846995 -0.00134446174548758 0.78526803695784 4.24144230647489e-16
0.0909999999999974 -0.112403676995227 -0.00140491759918858 0.78526803695784 2.82762820431659e-16
0.091999999999997 -0.114942764873002 -0.00146735894473514 0.78526803695784 2.82762820431659e-16
0.0929999999999966 -0.117509766294091 -0.001531825754182 0.785268036957841 NaN
0.0939999999999963 -0.120104573163054 -0.00159835838109157 0.785268036957841 1.4138141021583e-16
0.0949999999999959 -0.122727077273665 -0.00166699762451752 0.785268036957841 1.4138141021583e-16
0.0959999999999955 -0.125377172600108 -0.00173778333552043 0.78526803695784 5.65525640863318e-16
0.0969999999999951 -0.12805475687898 -0.00181075734194071 0.78526803695784 5.65525640863318e-16
0.0979999999999947 -0.130759732824801 -0.00188596047621426 0.78526803695784 2.82762820431659e-16
0.0989999999999943 -0.133492008383129 -0.00196343425828653 0.78526803695784 2.82762820431659e-16
0.0999999999999939 -0.13625149628751 -0.00204322029136201 0.78526803695784 2.82762820431659e-16
0.100999999999994 -0.139038112571519 -0.00212536115303595 0.785268036957841 1.4138141021583e-16
0.101999999999993 -0.141851774329728 -0.00220989878121 0.785268036957841 1.4138141021583e-16
0.102999999999993 -0.144692396586922 -0.00229687544417469 0.78526803695784 4.24144230647489e-16
0.103999999999992 -0.14755988870192 -0.00238633423882848 0.78526803695784 5.65525640863318e-16
0.104999999999992 -0.150454150374615 -0.00247831716986466 0.785268036957841 NaN
0.105999999999992 -0.153375067739154 -0.00257286715651577 0.78526803695784 4.24144230647489e-16
0.106999999999991 -0.156322509773868 -0.00267002628365211 0.78526803695784 7.06907051079148e-16
0.107999999999991 -0.159296325477973 -0.00276983715639086 0.78526803695784 2.82762820431659e-16
0.10899999999999 -0.162296342032102 -0.00287234220252991 0.78526803695784 4.24144230647489e-16
0.10999999999999 -0.165322364239664 -0.00297758252536852 0.78526803695784 5.65525640863318e-16
0.11099999999999 -0.16837417532351 -0.00308560024930586 0.78526803695784 4.24144230647489e-16
0.111999999999989 -0.17145153909297 -0.00319643587173003 0.78526803695784 2.82762820431659e-16
0.112999999999989 -0.174554203357232 -0.00331013095321014 0.78526803695784 5.65525640863318e-16
0.113999999999988 -0.177681904317693 -0.00342672569578684 0.78526803695784 5.65525640863318e-16
0.114999999999988 -0.180834371624158 -0.00354626047979661 0.785268036957841 1.4138141021583e-16
0.115999999999988 -0.184011333654542 -0.00366877610409409 0.785268036957841 1.4138141021583e-16
0.116999999999987 -0.187212522621286 -0.00379431207570445 0.78526803695784 5.65525640863318e-16
0.117999999999987 -0.190437679053437 -0.003922909545144 0.78526803695784 4.24144230647489e-16
0.118999999999987 -0.19368655533686 -0.00405460854888236 0.78526803695784 2.82762820431659e-16
0.119999999999986 -0.196958917999026 -0.0041894493811151 0.78526803695784 2.82762820431659e-16
0.120999999999986 -0.200254548621425 -0.00432747279489424 0.78526803695784 2.82762820431659e-16
0.121999999999985 -0.20357324327932 -0.00446871965004234 0.78526803695784 2.82762820431659e-16
0.122999999999985 -0.206914810611105 -0.00461323113563329 0.78526803695784 4.24144230647489e-16
0.123999999999985 -0.210279068625803 -0.00476104796548983 0.78526803695784 2.82762820431659e-16
0.124999999999984 -0.213665840478155 -0.00491221166028374 0.78526803695784 4.24144230647489e-16
0.125999999999985 -0.217074949449384 -0.00506676302386052 0.78526803695784 5.65525640863318e-16
0.126999999999986 -0.220506213418313 -0.00522474255997335 0.78526803695784 2.82762820431659e-16
0.127999999999987 -0.2239594390419 -0.00538619140285119 0.78526803695784 5.65525640863318e-16
0.128999999999988 -0.227434415911881 -0.00555114928127592 0.78526803695784 2.82762820431659e-16
0.129999999999989 -0.230930910878194 -0.00571965527985469 0.78526803695784 2.82762820431659e-16
0.13099999999999 -0.234448662706027 -0.00589174858713878 0.78526803695784 2.82762820431659e-16
0.131999999999991 -0.237987377222829 -0.00606746731529064 0.78526803695784 4.24144230647489e-16
0.132999999999992 -0.241546723091719 -0.0062468470754573 0.78526803695784 2.82762820431659e-16
0.133999999999993 -0.245126328326832 -0.00642992396803598 0.78526803695784 4.24144230647489e-16
0.134999999999994 -0.24872577767671 -0.00661673223161119 0.785268036957841 NaN
0.135999999999995 -0.252344611036754 -0.00680730447961195 0.78526803695784 4.24144230647489e-16
0.136999999999996 -0.255982323010165 -0.00700167145583421 0.78526803695784 8.48288461294977e-16
0.137999999999997 -0.259638363781748 -0.00719986296545009 0.78526803695784 4.24144230647489e-16
0.138999999999998 -0.263312141466668 -0.00740190619903854 0.78526803695784 4.24144230647489e-16
0.139999999999999 -0.267003026019403 -0.00760782775659028 0.78526803695784 5.65525640863318e-16
0.141 -0.270710354802111 -0.00781765103319992 0.78526803695784 9.89669871510807e-16
0.142000000000001 -0.274433439820163 -0.00803139937400191 0.785268036957841 1.4138141021583e-16
0.143000000000002 -0.278171576501549 -0.00824909346417882 0.78526803695784 4.24144230647489e-16
0.144000000000003 -0.281924053856263 -0.00847075383061782 0.785268036957841 1.4138141021583e-16
0.145000000000004 -0.285690165664372 -0.00869639898938862 0.78526803695784 2.82762820431659e-16
0.146000000000005 -0.289469222262193 -0.00892604789579111 0.78526803695784 4.24144230647489e-16
0.147000000000006 -0.293260562361212 -0.00915971807058824 0.78526803695784 2.82762820431659e-16
0.148000000000007 -0.297063564273768 -0.00939742804970945 0.785268036957841 1.4138141021583e-16
0.149000000000008 -0.300877655824185 -0.00963919614125348 0.785268036957841 NaN
0.150000000000009 -0.304702322254955 -0.00988504175335834 0.785268036957841 1.4138141021583e-16
0.15100000000001 -0.308537111421683 -0.0101349854279588 0.785268036957841 2.82762820431659e-16
0.152000000000011 -0.312381635680445 -0.0103890478025501 0.78526803695784 2.82762820431659e-16
0.153000000000012 -0.316235569968389 -0.0106472525418097 0.78526803695784 4.24144230647489e-16
0.154000000000013 -0.320098645753859 -0.0109096227904405 0.785268036957841 NaN
0.155000000000014 -0.323970640679801 -0.0111761841488127 0.785268036957841 1.4138141021583e-16
0.156000000000015 -0.327851364001392 -0.0114469616207068 0.785268036957841 NaN
0.157000000000016 -0.331740638041049 -0.0117219808293952 0.785268036957841 1.4138141021583e-16
0.158000000000017 -0.335638276183044 -0.0120012670060455 0.785268036957841 1.4138141021583e-16
0.159000000000018 -0.339544058057165 -0.0122848442230869 0.78526803695784 2.82762820431659e-16
0.160000000000019 -0.343457702770528 -0.012572733401936 0.785268036957841 NaN
0.16100000000002 -0.347378841164738 -0.0128649522970612 0.785268036957841 2.82762820431659e-16
0.162000000000021 -0.351306988159374 -0.0131615153031702 0.78526803695784 2.82762820431659e-16
0.163000000000022 -0.355241516298988 -0.0134624295438078 0.785268036957841 NaN
0.164000000000023 -0.359181631615815 -0.0137676960665348 0.785268036957841 2.82762820431659e-16
0.165000000000024 -0.363126352826346 -0.0140773082509277 0.785268036957841 1.4138141021583e-16
0.166000000000025 -0.367074494831162 -0.0143912504631605 0.785268036957841 2.82762820431659e-16
0.167000000000026 -0.371024657281729 -0.014709496425214 0.785268036957841 2.82762820431659e-16
0.168000000000027 -0.374975218825926 -0.0150320108562473 0.785268036957841 1.4138141021583e-16
0.169000000000028 -0.378924337421866 -0.0153587466990274 0.785268036957841 1.4138141021583e-16
0.170000000000029 -0.382869956889484 -0.0156896459514036 0.785268036957841 1.4138141021583e-16
0.17100000000003 -0.386809819606894 -0.0160246391961287 0.785268036957841 1.4138141021583e-16
0.172000000000031 -0.390741485089015 -0.0163636465751558 0.785268036957841 1.4138141021583e-16
0.173000000000032 -0.394662353918516 -0.0167065771757426 0.78526803695784 2.82762820431659e-16
0.174000000000033 -0.398569696333518 -0.0170533312997568 0.785268036957841 NaN
0.175000000000034 -0.40246068465329 -0.0174037999267893 0.78526803695784 2.82762820431659e-16
0.176000000000035 -0.406332428549301 -0.017757866242503 0.785268036957841 1.4138141021583e-16
0.177000000000036 -0.410182012153091 -0.0181154077366343 0.785268036957841 1.4138141021583e-16
0.178000000000037 -0.414006531941361 -0.0184762973193531 0.785268036957841 4.24144230647489e-16
0.179000000000038 -0.41780313430847 -0.0188404040862192 0.785268036957841 NaN
0.180000000000039 -0.421569051860308 -0.0192075958543107 0.785268036957841 2.82762820431659e-16
0.18100000000004 -0.425301637493001 -0.0195777404396031 0.785268036957841 1.4138141021583e-16
0.182000000000041 -0.428998395401217 -0.0199507074487986 0.785268036957841 4.24144230647489e-16
0.183000000000042 -0.432657008396736 -0.0203263687576584 0.78526803695784 2.82762820431659e-16
0.184000000000043 -0.436275360928168 -0.0207046013692116 0.785268036957841 2.82762820431659e-16
0.185000000000044 -0.439851557472076 -0.0210852878495932 0.785268036957841 1.4138141021583e-16
0.186000000000045 -0.443383936032007 -0.0214683165712867 0.785268036957841 1.4138141021583e-16
0.187000000000046 -0.44687107668866 -0.021853584327053 0.785268036957841 NaN
0.188000000000047 -0.450311805278638 -0.0222409957893809 0.785268036957841 2.82762820431659e-16
0.189000000000048 -0.45370519239024 -0.0226304647579254 0.785268036957841 1.4138141021583e-16
0.190000000000049 -0.45705054801646 -0.0230219128929417 0.785268036957841 NaN
0.19100000000005 -0.46034741227166 -0.0234152724682393 0.785268036957841 NaN
0.192000000000051 -0.463595542661823 -0.0238104831214585 0.785268036957841 1.4138141021583e-16
0.193000000000052 -0.466794898444903 -0.0242074943450009 0.785268036957841 1.4138141021583e-16
0.194000000000053 -0.469945622667693 -0.0246062634851813 0.785268036957841 NaN
0.195000000000054 -0.473048022431917 -0.0250067554707764 0.785268036957841 2.82762820431659e-16
0.196000000000055 -0.476102547984685 -0.0254089422918846 0.785268036957841 2.82762820431659e-16
0.197000000000056 -0.479109771150695 -0.0258128023219678 0.785268036957841 2.82762820431659e-16
0.198000000000057 -0.482070363650251 -0.0262183191371929 0.785268036957841 1.4138141021583e-16
0.199000000000058 -0.484985075709206 -0.026625481342483 0.785268036957841 NaN
0.200000000000059 -0.487854715421487 -0.027034281464004 0.785268036957841 1.4138141021583e-16
0.20100000000006 -0.490680129146674 -0.0274447143614501 0.785268036957841 NaN
0.202000000000061 -0.493462183290731 -0.0278567770096309 0.785268036957841 NaN
0.203000000000062 -0.496201747640819 -0.0282704676892331 0.785268036957841 2.82762820431659e-16
0.204000000000063 -0.498899680456756 -0.0286857855797127 0.785268036957841 NaN
0.205000000000064 -0.501556815431295 -0.0291027283478503 0.785268036957841 NaN
0.206000000000065 -0.504173950564397 -0.0295212945725433 0.785268036957841 2.82762820431659e-16
0.207000000000066 -0.50675183902551 -0.0299414797574038 0.785268036957841 NaN
0.208000000000067 -0.509291181916108 -0.0303632779263007 0.785268036957841 NaN
0.209000000000068 -0.511792622949967 -0.0307866813888288 0.785268036957841 NaN
0.210000000000069 -0.514256744917471 -0.0312116783564996 0.785268036957841 1.4138141021583e-16
0.21100000000007 -0.516684067833015 -0.0316382555693434 0.785268036957841 5.65525640863318e-16
