"Time, Y-Force, Work integrand, Mass, Mass error"
1e-05 -8.39377456429702e-11 -2.77194532327298e-11 0.78526803695784 NaN
0.001 -1.31325297688667e-05 -2.54429320654901e-11 0.78526803695784 1.4138141021583e-16
0.002 -5.03470776508363e-05 -2.78088961610193e-10 0.78526803695784 1.4138141021583e-16
0.00300000000000001 -0.000112882284589944 -1.583410555861e-09 0.785268036957839 2.82762820431659e-16
0.00400000000000001 -0.000199822542236272 -4.9341247337739e-09 0.78526803695784 1.4138141021583e-16
0.00499999999999996 -0.000313530973360843 -1.24674589772166e-08 0.785268036957839 5.65525640863319e-16
0.00599999999999992 -0.000452715754815536 -2.58936504904512e-08 0.785268036957839 2.82762820431659e-16
0.00699999999999988 -0.000616246217744032 -4.80317622435245e-08 0.785268036957839 2.82762820431659e-16
0.00799999999999984 -0.000805534507144823 -8.1908680024205e-08 0.78526803695784 NaN
0.0089999999999998 -0.00102114752845472 -1.3123481472401e-07 0.78526803695784 NaN
0.00999999999999976 -0.00126234440780126 -2.00224412619657e-07 0.785268036957839 2.82762820431659e-16
0.0109999999999997 -0.00152904299769596 -2.93305723333563e-07 0.785268036957839 2.82762820431659e-16
0.0119999999999997 -0.00182181879512555 -4.1571243835751e-07 0.78526803695784 NaN
0.0129999999999996 -0.00214080025780827 -5.73071222201513e-07 0.78526803695784 1.4138141021583e-16
0.0139999999999996 -0.00248577739005029 -7.71214135276226e-07 0.785268036957839 2.82762820431659e-16
0.0149999999999996 -0.00285685287647119 -1.01690624082439e-06 0.785268036957839 2.82762820431659e-16
0.0159999999999995 -0.00325429413376632 -1.3172149505566e-06 0.78526803695784 1.4138141021583e-16
0.0169999999999995 -0.00367815016261541 -1.67974630733221e-06 0.785268036957839 2.82762820431659e-16
0.0179999999999994 -0.00412838941195925 -2.11262972374962e-06 0.785268036957839 2.82762820431659e-16
0.0189999999999994 -0.00460512447595685 -2.62436268297126e-06 0.78526803695784 1.4138141021583e-16
0.0199999999999994 -0.00510851080410335 -3.22391109344096e-06 0.785268036957839 2.82762820431659e-16
0.0209999999999993 -0.00563860512994474 -3.92095619817736e-06 0.785268036957839 2.82762820431659e-16
0.0219999999999993 -0.00619543232309228 -4.72568789802047e-06 0.78526803695784 NaN
0.0229999999999992 -0.00677908845148012 -5.64844917255757e-06 0.78526803695784 1.4138141021583e-16
0.0239999999999992 -0.00738970062403943 -6.70068022584971e-06 0.785268036957839 4.24144230647489e-16
0.0249999999999992 -0.0080273425906805 -7.89381076500101e-06 0.78526803695784 1.4138141021583e-16
0.0259999999999991 -0.00869204998517403 -9.23963309239738e-06 0.78526803695784 1.4138141021583e-16
0.0269999999999991 -0.0093838870646733 -1.07511283328514e-05 0.78526803695784 1.4138141021583e-16
0.027999999999999 -0.0101029505515036 -1.24413913418932e-05 0.78526803695784 NaN
0.028999999999999 -0.0108493235773768 -1.43237779815932e-05 0.78526803695784 1.4138141021583e-16
0.0299999999999989 -0.0116230653310876 -1.64125782790378e-05 0.78526803695784 NaN
0.0309999999999989 -0.0124242406354375 -1.87222050459705e-05 0.78526803695784 1.4138141021583e-16
0.0319999999999991 -0.0132529273501681 -2.12681545450456e-05 0.785268036957839 4.24144230647489e-16
0.0329999999999994 -0.0141091944234401 -2.40660683553722e-05 0.785268036957839 2.82762820431659e-16
0.0339999999999997 -0.0149930979560962 -2.71312189737279e-05 0.78526803695784 1.4138141021583e-16
0.035 -0.0159047004930443 -3.04814210882981e-05 0.78526803695784 1.4138141021583e-16
0.0360000000000004 -0.0168440745555378 -3.41328331727672e-05 0.78526803695784 1.4138141021583e-16
0.0370000000000007 -0.0178112857992992 -3.81039051440883e-05 0.78526803695784 1.4138141021583e-16
0.038000000000001 -0.0188063882633501 -4.24119581549375e-05 0.78526803695784 1.4138141021583e-16
0.0390000000000013 -0.0198294373523799 -4.7076362776124e-05 0.785268036957839 4.24144230647489e-16
0.0400000000000016 -0.0208804950725985 -5.21156230806875e-05 0.785268036957839 4.24144230647489e-16
0.0410000000000019 -0.021959621491721 -5.75502933079022e-05 0.78526803695784 1.4138141021583e-16
0.0420000000000022 -0.0230668710143764 -6.33992996672127e-05 0.78526803695784 NaN
0.0430000000000025 -0.0242022974545558 -6.96838566993402e-05 0.785268036957839 2.82762820431659e-16
0.0440000000000028 -0.0253659540703163 -7.64253675328138e-05 0.785268036957839 4.24144230647489e-16
0.0450000000000031 -0.0265578880184195 -8.36452229458463e-05 0.785268036957839 7.06907051079149e-16
0.0460000000000034 -0.0277781423342804 -9.13653339833914e-05 0.785268036957839 2.82762820431659e-16
0.0470000000000037 -0.0290267644601317 -9.96083217328966e-05 0.78526803695784 1.4138141021583e-16
0.048000000000004 -0.0303038067794462 -0.000108397477670721 0.785268036957839 2.82762820431659e-16
0.0490000000000043 -0.031609317681171 -0.000117755958543451 0.785268036957839 4.24144230647489e-16
0.0500000000000046 -0.0329433371228468 -0.000127708142605026 0.785268036957839 2.82762820431659e-16
0.0510000000000049 -0.0343059018670328 -0.000138279042212879 0.785268036957839 4.24144230647489e-16
0.0520000000000053 -0.0356970500598909 -0.000149492608710532 0.785268036957839 4.24144230647489e-16
0.0530000000000056 -0.037116818566894 -0.000161374861946521 0.78526803695784 1.4138141021583e-16
0.0540000000000059 -0.0385652394485784 -0.000173951839120966 0.785268036957839 7.06907051079149e-16
0.0550000000000062 -0.0400423417217157 -0.000187249731642147 0.785268036957839 4.24144230647489e-16
0.0560000000000065 -0.0415481547843348 -0.000201295346416237 0.785268036957839 4.24144230647489e-16
0.0570000000000068 -0.0430827084640533 -0.000216116394766516 0.785268036957839 4.24144230647489e-16
0.0580000000000071 -0.0446460311914932 -0.000231740245026618 0.78526803695784 1.4138141021583e-16
0.0590000000000074 -0.046238149676868 -0.00024819558521638 0.785268036957839 7.06907051079149e-16
0.0600000000000077 -0.0478590890818233 -0.000265510822357794 0.785268036957839 2.82762820431659e-16
0.061000000000008 -0.0495088715028472 -0.000283715066431088 0.785268036957839 5.65525640863319e-16
0.0620000000000083 -0.0511875139454741 -0.000302838567229809 0.785268036957839 5.65525640863319e-16
0.0630000000000083 -0.0528950281908642 -0.0003229103855737 0.785268036957839 4.24144230647489e-16
0.0640000000000079 -0.0546314222878228 -0.000343961890681999 0.785268036957839 2.82762820431659e-16
0.0650000000000075 -0.0563967019230226 -0.000366023383643613 0.785268036957839 4.24144230647489e-16
0.0660000000000071 -0.0581908711782703 -0.000389125893393206 0.785268036957839 2.82762820431659e-16
0.0670000000000067 -0.0600139332548056 -0.000413302376027493 0.785268036957839 5.65525640863319e-16
0.0680000000000063 -0.0618658909664734 -0.000438583352662479 0.785268036957839 5.65525640863319e-16
0.0690000000000059 -0.0637467464936787 -0.000465002871250736 0.785268036957839 5.65525640863319e-16
0.0700000000000056 -0.0656565008895471 -0.0004925931851841 0.78526803695784 1.4138141021583e-16
0.0710000000000052 -0.0675951539330407 -0.00052138798813815 0.785268036957839 7.06907051079149e-16
0.0720000000000048 -0.0695627039882141 -0.00055142096271929 0.785268036957839 5.65525640863319e-16
0.0730000000000044 -0.071559147146996 -0.000582726439861985 0.78526803695784 1.4138141021583e-16
0.074000000000004 -0.0735844756850393 -0.000615339170459182 0.785268036957839 4.24144230647489e-16
0.0750000000000036 -0.0756386764107313 -0.00064929423785083 0.785268036957839 2.82762820431659e-16
0.0760000000000032 -0.0777217293497252 -0.00068462598808106 0.78526803695784 1.4138141021583e-16
0.0770000000000028 -0.0798336068405657 -0.000721371025428787 0.785268036957839 4.24144230647489e-16
0.0780000000000025 -0.0819742733820825 -0.000759565050194728 0.785268036957839 5.65525640863319e-16
0.0790000000000021 -0.0841436867392009 -0.000799244348872215 0.78526803695784 1.4138141021583e-16
0.0800000000000017 -0.0863418002354865 -0.000840445402060543 0.78526803695784 NaN
0.0810000000000013 -0.0885685655675547 -0.00088320470463136 0.785268036957839 2.82762820431659e-16
0.0820000000000009 -0.0908239354775748 -0.000927560404861521 0.785268036957839 4.24144230647489e-16
0.0830000000000005 -0.0931078656738012 -0.000973549420654319 0.785268036957839 2.82762820431659e-16
0.0840000000000001 -0.0954203156629333 -0.00102121014431581 0.785268036957839 7.06907051079149e-16
0.0849999999999997 -0.0977612480975398 -0.00107058102415526 0.785268036957839 4.24144230647489e-16
0.0859999999999994 -0.100130626766258 -0.00112170018429519 0.785268036957839 5.65525640863319e-16
0.086999999999999 -0.102528413514574 -0.00117460732403282 0.785268036957839 5.65525640863319e-16
0.0879999999999986 -0.104954564722607 -0.00122934167666507 0.785268036957839 2.82762820431659e-16
0.0889999999999982 -0.107409027863982 -0.0012859422220017 0.785268036957839 5.65525640863319e-16
0.0899999999999978 -0.10989173877745 -0.0013444492016063 0.785268036957839 5.65525640863319e-16
0.0909999999999974 -0.112402620221848 -0.00140490248955604 0.785268036957839 5.65525640863319e-16
0.091999999999997 -0.11494158207286 -0.00146734192726537 0.785268036957839 2.82762820431659e-16
0.0929999999999966 -0.117508523176472 -0.00153180759272161 0.785268036957839 8.48288461294978e-16
0.0939999999999963 -0.120103334615338 -0.00159833988120754 0.785268036957839 7.06907051079149e-16
0.0949999999999959 -0.122725903846788 -0.00166697958575133 0.785268036957839 4.24144230647489e-16
0.0959999999999955 -0.12537611899394 -0.00173776652259934 0.785268036957839 9.89669871510808e-16
0.0969999999999951 -0.128053872466334 -0.00181074248037275 0.785268036957839 5.65525640863319e-16
0.0979999999999947 -0.130759063181365 -0.00188594826176388 0.785268036957839 5.65525640863319e-16
0.0989999999999943 -0.133491596923718 -0.00196342537214655 0.785268036957839 4.24144230647489e-16
0.0999999999999939 -0.136251384648271 -0.00204321540306455 0.785268036957839 7.06907051079149e-16
0.100999999999994 -0.139038338935456 -0.00212536089983588 0.785268036957839 7.06907051079149e-16
0.101999999999993 -0.141852369075262 -0.00220990371143081 0.785268036957839 4.24144230647489e-16
0.102999999999993 -0.144693375518278 -0.00229688592422182 0.785268036957839 4.24144230647489e-16
0.103999999999992 -0.147561244600203 -0.00238635032859578 0.785268036957839 8.48288461294978e-16
0.104999999999992 -0.15045584432485 -0.00247833848440127 0.785268036957839 5.65525640863319e-16
0.105999999999992 -0.153377021858405 -0.00257289273456141 0.785268036957839 5.65525640863319e-16
0.106999999999991 -0.156324603174037 -0.00267005449158073 0.785268036957839 4.24144230647489e-16
0.107999999999991 -0.159298394956178 -0.00276986565300467 0.785268036957839 5.65525640863319e-16
0.10899999999999 -0.162298188572066 -0.00287236798837628 0.785268036957839 5.65525640863319e-16
0.10999999999999 -0.165323765725853 -0.00297760209178368 0.785268036957839 5.65525640863319e-16
0.11099999999999 -0.168374905071774 -0.00308560983182101 0.785268036957839 4.24144230647489e-16
0.111999999999989 -0.171451389013011 -0.00319643179983195 0.785268036957839 7.06907051079149e-16
0.112999999999989 -0.174553009795569 -0.00331011007469935 0.785268036957839 9.89669871510808e-16
0.113999999999988 -0.177679574032711 -0.00342668584065172 0.785268036957839 8.48288461294978e-16
0.114999999999988 -0.180830904916789 -0.00354620091668115 0.785268036957839 4.24144230647489e-16
0.115999999999988 -0.184006841616952 -0.00366869793512313 0.785268036957839 8.48288461294978e-16
0.116999999999987 -0.18720723565608 -0.00379421851211944 0.785268036957839 5.65525640863319e-16
0.117999999999987 -0.19043194442621 -0.00392280601011302 0.785268036957839 5.65525640863319e-16
0.118999999999987 -0.193680822452096 -0.00405450256531133 0.785268036957839 8.48288461294978e-16
0.119999999999986 -0.196953711280423 -0.00418935021979319 0.785268036957839 1.13105128172664e-15
0.120999999999986 -0.20025042924825 -0.00432739088263645 0.785268036957839 4.24144230647489e-16
0.121999999999985 -0.203570762368222 -0.00446866576443543 0.785268036957839 9.89669871510808e-16
0.122999999999985 -0.206914457610249 -0.00461321544025977 0.785268036957839 9.89669871510808e-16
0.123999999999985 -0.210281219553007 -0.00476107896380275 0.785268036957839 1.27243269194247e-15
0.124999999999984 -0.21367071095668 -0.00491229516201427 0.785268036957839 1.13105128172664e-15
0.125999999999985 -0.217082557336744 -0.00506690122516052 0.785268036957839 8.48288461294978e-16
0.126999999999986 -0.22051635509723 -0.00522493333415715 0.785268036957839 9.89669871510808e-16
0.127999999999987 -0.223971682261767 -0.00538642788305636 0.785268036957839 9.89669871510808e-16
0.128999999999988 -0.227448110585975 -0.00555141979227147 0.785268036957839 1.27243269194247e-15
0.129999999999989 -0.230945217640623 -0.00571994364609382 0.785268036957839 8.48288461294978e-16
0.13099999999999 -0.234462597474984 -0.00589203481171541 0.785268036957839 1.13105128172664e-15
0.131999999999991 -0.237999868707915 -0.0060677285938041 0.785268036957839 9.89669871510808e-16
0.132999999999992 -0.241556679288224 -0.00624705908438414 0.785268036957839 9.89669871510808e-16
0.133999999999993 -0.245132707505668 -0.00643006234884875 0.785268036957839 1.27243269194247e-15
0.134999999999994 -0.248727659352947 -0.00661677418398683 0.785268036957839 1.27243269194247e-15
0.135999999999995 -0.252341262703261 -0.00680723037569677 0.785268036957839 1.13105128172664e-15
0.136999999999996 -0.255973259042276 -0.00700146639422404 0.785268036957839 1.13105128172664e-15
0.137999999999997 -0.259623393616645 -0.00719951819221094 0.785268036957839 7.06907051079149e-16
0.138999999999998 -0.263291404890631 -0.00740142033286405 0.785268036957839 1.13105128172664e-15
0.139999999999999 -0.266977013996894 -0.00760720776269897 0.785268036957839 1.13105128172664e-15
0.141 -0.27067991474017 -0.00781691289380339 0.785268036957839 1.13105128172664e-15
0.142000000000001 -0.274399764467253 -0.00803056840367884 0.785268036957839 1.13105128172664e-15
0.143000000000002 -0.278136175857152 -0.00824820421497719 0.785268036957839 9.89669871510808e-16
0.144000000000003 -0.281888709728647 -0.00846984953098366 0.785268036957839 8.48288461294978e-16
0.145000000000004 -0.285656868827457 -0.00869553046374298 0.785268036957839 1.27243269194247e-15
0.146000000000005 -0.289440092748951 -0.00892527192273064 0.785268036957839 1.13105128172664e-15
0.147000000000006 -0.293237754248727 -0.00915909515932063 0.785268036957839 9.89669871510808e-16
0.148000000000007 -0.297049157451627 -0.00939701964931028 0.785268036957839 8.48288461294978e-16
0.149000000000008 -0.300873538532084 -0.00963906134166399 0.785268036957839 1.13105128172664e-15
0.150000000000009 -0.304710069577718 -0.00988523359109223 0.785268036957839 1.27243269194247e-15
0.15100000000001 -0.308557866224088 -0.0101355469654611 0.785268036957839 9.89669871510808e-16
0.152000000000011 -0.312415999467305 -0.0103900082034246 0.785268036957839 1.13105128172664e-15
0.153000000000012 -0.316283511719096 -0.0106486234070493 0.785268036957839 1.13105128172664e-15
0.154000000000013 -0.320159436715882 -0.0109113950471906 0.785268036957839 8.48288461294978e-16
0.155000000000014 -0.324042822340937 -0.0111783257864387 0.785268036957839 1.27243269194247e-15
0.156000000000015 -0.327932754983712 -0.0114494165474349 0.785268036957839 1.13105128172664e-15
0.157000000000016 -0.331828383499514 -0.0117246690725269 0.785268036957839 9.89669871510808e-16
0.158000000000017 -0.335728940620868 -0.0120040864048672 0.785268036957839 7.06907051079149e-16
0.159000000000018 -0.339633759447827 -0.0122876736672676 0.785268036957839 9.89669871510808e-16
0.160000000000019 -0.343542282757746 -0.0125754375579565 0.785268036957839 8.48288461294978e-16
0.16100000000002 -0.347454063215719 -0.0128673876511466 0.785268036957839 8.48288461294978e-16
0.162000000000021 -0.351368753036507 -0.0131635372375611 0.785268036957839 9.89669871510808e-16
0.163000000000022 -0.355286082445446 -0.0134639000683846 0.785268036957839 8.48288461294978e-16
0.164000000000023 -0.359205827094964 -0.0137684917553964 0.785268036957839 8.48288461294978e-16
0.165000000000024 -0.363127765489747 -0.0140773278923622 0.785268036957839 8.48288461294978e-16
0.166000000000025 -0.367051628385167 -0.0143904219253125 0.785268036957839 8.48288461294978e-16
0.167000000000026 -0.37097704287247 -0.0147077822718064 0.785268036957839 8.48288461294978e-16
0.168000000000027 -0.374903474424008 -0.0150294123117253 0.785268036957839 1.27243269194247e-15
0.169000000000028 -0.378830170559155 -0.0153553056597143 0.785268036957839 9.89669871510808e-16
0.170000000000029 -0.382756109857808 -0.015685444858563 0.785268036957839 9.89669871510808e-16
0.17100000000003 -0.386679959803257 -0.016019798719592 0.785268036957839 5.65525640863319e-16
0.172000000000031 -0.390600046583206 -0.0163583211947936 0.785268036957839 8.48288461294978e-16
0.173000000000032 -0.39451433920652 -0.0167009488781304 0.785268036957839 8.48288461294978e-16
0.174000000000033 -0.398420449512298 -0.0170476017245118 0.785268036957839 9.89669871510808e-16
0.175000000000034 -0.402315648715275 -0.0173981813893578 0.785268036957839 7.06907051079149e-16
0.176000000000035 -0.406196900138498 -0.0177525721256278 0.785268036957839 7.06907051079149e-16
0.177000000000036 -0.410060906923393 -0.0181106427753611 0.785268036957839 9.89669871510808e-16
0.178000000000037 -0.413904172627112 -0.0184722483028979 0.785268036957839 8.48288461294978e-16
0.179000000000038 -0.417723071950625 -0.0188372314687088 0.785268036957839 9.89669871510808e-16
0.180000000000039 -0.421513928368772 -0.0192054267037408 0.785268036957839 9.89669871510808e-16
0.18100000000004 -0.4252730951204 -0.0195766630699271 0.785268036957839 1.13105128172664e-15
0.182000000000041 -0.428997035854905 -0.0199507679750073 0.785268036957839 9.89669871510808e-16
0.183000000000042 -0.432682401506942 -0.0203275697012505 0.785268036957839 1.13105128172664e-15
0.184000000000043 -0.436326100070128 -0.0207069023220167 0.785268036957839 1.4138141021583e-15
0.185000000000044 -0.439925356586368 -0.021088608091313 0.785268036957839 1.4138141021583e-15
0.186000000000045 -0.443477761135185 -0.0214725394329203 0.785268036957839 1.13105128172664e-15
0.187000000000046 -0.446981303379278 -0.0218585630076178 0.785268036957839 9.89669871510808e-16
0.188000000000047 -0.45043439292541 -0.0222465602699532 0.785268036957838 1.55519551237413e-15
0.189000000000048 -0.453835865459446 -0.0226364294171482 0.785268036957839 9.89669871510808e-16
0.190000000000049 -0.45718497538331 -0.0230280844169917 0.785268036957838 1.55519551237413e-15
0.19100000000005 -0.460481376200776 -0.0234214576592443 0.785268036957839 1.13105128172664e-15
0.192000000000051 -0.463725090420354 -0.0238164962441653 0.785268036957839 1.27243269194247e-15
0.193000000000052 -0.466916471087527 -0.0242131637045814 0.785268036957839 1.13105128172664e-15
0.194000000000053 -0.470056157203782 -0.0246114369942593 0.785268036957839 1.27243269194247e-15
0.195000000000054 -0.473145025374617 -0.0250113050389914 0.785268036957839 1.27243269194247e-15
0.196000000000055 -0.476184139839761 -0.025412766942398 0.785268036957839 9.89669871510808e-16
0.197000000000056 -0.47917470292613 -0.0258158300142714 0.785268036957839 1.27243269194247e-15
0.198000000000057 -0.482118007584858 -0.0262205073337621 0.785268036957839 1.13105128172664e-15
0.199000000000058 -0.485015393364167 -0.026626816412286 0.785268036957839 9.89669871510808e-16
0.200000000000059 -0.487868206828106 -0.0270347770527367 0.785268036957839 9.89669871510808e-16
0.20100000000006 -0.490677767071889 -0.0274444088889606 0.785268036957839 1.13105128172664e-15
0.202000000000061 -0.493445336757996 -0.0278557304700906 0.785268036957839 9.89669871510808e-16
0.203000000000062 -0.496172098739902 -0.0282687579380134 0.785268036957839 1.13105128172664e-15
0.204000000000063 -0.498859138260458 -0.0286835042909672 0.785268036957839 1.13105128172664e-15
0.205000000000064 -0.501507430509722 -0.0290999768216375 0.785268036957839 9.89669871510808e-16
