             Time,          Y-Force,   Work integrand
                0,  9.417833098e-06,                0
            0.004,    0.01124676629,  -3.64946507e-06
            0.008,    0.03736753815, -3.834300766e-05
            0.012,    0.06860216781, -0.0001318705795
            0.016,    0.09884586556, -0.0003092561425
             0.02,      0.126477098, -0.0005993762022
            0.024,     0.1523286305,  -0.001019317688
            0.028,     0.1774794717,  -0.001586802537
            0.032,     0.2026006079,  -0.002323932378
            0.036,     0.2278745986,  -0.003247706773
             0.04,      0.253208992,  -0.004371305028
            0.044,     0.2784838166,  -0.005707399901
            0.048,     0.3036351393,  -0.007266901444
            0.052,     0.3286514637,  -0.009058650029
            0.056,     0.3535461501,   -0.01109038189
             0.06,     0.3783354192,   -0.01336864251
            0.064,     0.4030299378,   -0.01589852362
            0.068,     0.4276353493,   -0.01868383472
            0.072,     0.4521558083,   -0.02172728276
            0.076,     0.4765964628,   -0.02503054703
             0.08,     0.5009642366,   -0.02859438834
            0.084,     0.5252676868,   -0.03241876993
            0.088,     0.5495166761,   -0.03650295292
            0.092,     0.5737221164,   -0.04084558429
            0.096,     0.5978957893,   -0.04544479152
              0.1,     0.6220503597,   -0.05029827607
            0.104,     0.6461994445,   -0.05540340405
            0.108,     0.6703575574,   -0.06075729228
            0.112,     0.6945400351,   -0.06635688801
            0.116,     0.7187630285,   -0.07219904694
             0.12,     0.7430434878,   -0.07828061427
            0.124,     0.7673991466,   -0.08459849994
            0.128,     0.7918485018,   -0.09114974316
            0.132,     0.8164107579,   -0.09793157679
            0.136,     0.8411058003,    -0.1049414958
             0.14,      0.865954251,    -0.1121773265
            0.144,     0.8909775269,    -0.1196372892
            0.148,     0.9161977558,    -0.1273200445
            0.152,     0.9416375704,    -0.1352247238
            0.156,     0.9673200497,    -0.1433509673
             0.16,     0.9932688797,    -0.1516989751
            0.164,      1.019508366,    -0.1602695443
            0.168,      1.046063104,    -0.1690640622
            0.172,      1.072957692,    -0.1780844692
            0.176,      1.100216717,    -0.1873332361
             0.18,      1.127864657,    -0.1968133551
            0.184,      1.155925407,    -0.2065282868
            0.188,      1.184421906,    -0.2164818649
            0.192,      1.213376306,    -0.2266782256
            0.196,      1.242810305,     -0.237121773
              0.2,      1.272744937,    -0.2478170999
            0.204,      1.303199775,    -0.2587688207
            0.208,      1.334192087,    -0.2699813837
            0.212,      1.365736505,    -0.2814589489
            0.216,      1.397845277,    -0.2932053317
             0.22,      1.430528743,    -0.3052239448
            0.224,      1.463795669,    -0.3175177137
            0.228,       1.49765331,    -0.3300890129
            0.232,      1.532107137,    -0.3429396447
            0.236,      1.567160275,     -0.356070787
             0.24,      1.602813112,    -0.3694828701
            0.244,       1.63906372,    -0.3831755015
            0.248,      1.675908996,    -0.3971475573
            0.252,      1.713345372,    -0.4113973404
            0.256,       1.75136813,    -0.4259225602
             0.26,      1.789969929,    -0.4407200798
            0.264,      1.829140225,    -0.4557856803
            0.268,      1.868866297,    -0.4711140765
            0.272,      1.909134712,    -0.4866991004
            0.276,      1.949931454,    -0.5025337333
             0.28,      1.991240415,    -0.5186098315
            0.284,      2.033041692,    -0.5349177397
            0.288,       2.07531133,    -0.5514461096
            0.292,      2.118022571,     -0.568182016
            0.296,      2.161147171,    -0.5851111522
              0.3,      2.204655443,    -0.6022178429
            0.304,      2.248515107,    -0.6194848444
            0.308,      2.292690261,    -0.6368931466
            0.312,      2.337141532,    -0.6544219915
            0.316,      2.381827216,     -0.672049106
             0.32,      2.426704312,    -0.6897509519
            0.324,      2.471728586,    -0.7075028144
            0.328,      2.516853872,    -0.7252787414
            0.332,      2.562031524,    -0.7430515013
            0.336,      2.607210743,     -0.760792699
             0.34,      2.652339599,    -0.7784730302
            0.344,      2.697365903,    -0.7960625176
            0.348,      2.742237244,    -0.8135305905
            0.352,      2.786900253,    -0.8308460106
            0.356,      2.831299873,    -0.8479767908
             0.36,      2.875379379,    -0.8648902654
            0.364,      2.919081238,    -0.8815533494
            0.368,      2.962348194,    -0.8979328585
            0.372,      3.005123876,    -0.9139957264
            0.376,      3.047352674,    -0.9297090583
             0.38,      3.088979191,    -0.9450400966
            0.384,       3.12994783,    -0.9599562187
            0.388,      3.170202859,    -0.9744250373
            0.392,      3.209688968,    -0.9884145897
            0.396,      3.248351982,     -1.001893539
              0.4,      3.286139327,     -1.014831321
            0.404,       3.32300006,     -1.027198227
            0.408,      3.358884601,      -1.03896543
            0.412,      3.393744528,     -1.050105016
            0.416,      3.427532762,      -1.06059006
             0.42,      3.460204129,     -1.070394804
            0.424,      3.491715936,     -1.079494882
            0.428,      3.522028113,     -1.087867496
            0.432,      3.551102868,     -1.095491443
            0.436,      3.578904291,     -1.102347059
             0.44,      3.605398406,     -1.108416135
            0.444,        3.6305537,     -1.113681891
            0.448,      3.654341626,     -1.118128961
            0.452,      3.676736543,     -1.121743387
            0.456,      3.697715164,     -1.124512642
             0.46,      3.717256048,     -1.126425694
            0.464,       3.73533968,     -1.127473089
            0.468,      3.751949096,     -1.127646965
            0.472,      3.767070458,     -1.126940981
            0.476,      3.780693006,     -1.125350179
             0.48,      3.792808463,     -1.122870935
            0.484,      3.803410549,     -1.119501043
            0.488,      3.812495149,     -1.115239882
            0.492,      3.820060958,     -1.110088478
            0.496,      3.826109874,     -1.104049363
              0.5,      3.830646681,     -1.097126301
            0.504,      3.833678217,     -1.089324102
            0.508,      3.835212641,     -1.080648604
            0.512,      3.835259275,     -1.071106724
            0.516,      3.833829156,     -1.060706421
             0.52,      3.830936047,     -1.049456665
            0.524,      3.826597207,     -1.037367527
            0.528,      3.820833118,     -1.024450255
            0.532,       3.81366614,     -1.010717089
            0.536,      3.805119103,    -0.9961809271
             0.54,      3.795214909,    -0.9808552124
            0.544,       3.78397706,    -0.9647540043
            0.548,      3.771430176,    -0.9478918831
            0.552,      3.757600049,    -0.9302836126
            0.556,      3.742513762,    -0.9119440323
             0.56,      3.726200497,     -0.892888572
            0.564,      3.708692602,    -0.8731340488
            0.568,      3.690025561,     -0.852698825
            0.572,      3.670236196,    -0.8316018272
            0.576,      3.649360428,    -0.8098612976
             0.58,      3.627432707,    -0.7874948127
            0.584,      3.604487085,    -0.7645206235
            0.588,      3.580557794,    -0.7409582761
            0.592,      3.555678545,    -0.7168271917
            0.596,      3.529883075,    -0.6921451835
              0.6,      3.503208709,    -0.6669297815
            0.604,      3.475699776,    -0.6412014803
            0.608,      3.447405702,    -0.6149847161
            0.612,      3.418373796,    -0.5883047366
            0.616,      3.388643281,    -0.5611836126
             0.62,      3.358246493,    -0.5336396412
            0.624,      3.327216009,    -0.5056904044
            0.628,      3.295591134,     -0.477356113
            0.632,      3.263418675,    -0.4486603361
            0.636,      3.230748238,    -0.4196280982
             0.64,      3.197625979,    -0.3902833881
            0.644,      3.164091116,    -0.3606481045
            0.648,      3.130177707,    -0.3307429828
            0.652,      3.095920699,    -0.3005893905
            0.656,      3.061361526,    -0.2702102967
             0.66,      3.026547935,    -0.2396297387
            0.664,      2.991527555,    -0.2088716502
            0.668,      2.956341137,    -0.1779592969
            0.672,        2.9210221,    -0.1469156089
            0.676,      2.885602469,    -0.1157636639
             0.68,      2.850118788,   -0.08452661157
            0.684,      2.814612427,   -0.05322722083
            0.688,      2.779125085,   -0.02188781276
            0.692,      2.743694594,   0.009469065987
            0.696,      2.708354459,    0.04081978808
              0.7,      2.673136288,    0.07213957274
            0.704,      2.638072198,     0.1034035147
            0.708,      2.603195213,     0.1345879121
            0.712,      2.568537659,     0.1656706737
            0.716,      2.534129292,       0.19663044
             0.72,      2.499996872,     0.2274452966
            0.724,       2.46616538,     0.2580921644
            0.728,      2.432659524,     0.2885470447
            0.732,      2.399504338,     0.3187856744
            0.736,      2.366724814,     0.3487843318
             0.74,      2.334345219,      0.378520467
            0.744,      2.302388551,     0.4079723903
            0.748,      2.270875863,      0.437117981
            0.752,      2.239824976,     0.4659339681
            0.756,      2.209249381,     0.4943969551
             0.76,       2.17915898,     0.5224848468
            0.764,      2.149562751,     0.5501765403
            0.768,      2.120471128,     0.5774503014
            0.772,      2.091896064,     0.6042832461
            0.776,      2.063848825,     0.6306525703
             0.78,      2.036337555,     0.6565365422
            0.784,      2.009366747,     0.6819138655
            0.788,      1.982938495,     0.7067626608
            0.792,      1.957053488,      0.731060557
            0.796,      1.931710688,     0.7547855872
              0.8,      1.906906867,     0.7779166125
            0.804,      1.882637446,     0.8004327221
            0.808,      1.858898147,     0.8223122048
            0.812,      1.835685564,     0.8435321982
            0.816,      1.812995741,     0.8640695043
             0.82,      1.790822083,     0.8839017173
            0.824,      1.769154417,     0.9030075548
            0.828,      1.747979533,     0.9213664326
            0.832,      1.727282568,     0.9389579445
            0.836,      1.707048828,     0.9557613415
             0.84,      1.687265416,      0.971755074
            0.844,       1.66792136,      0.986917063
            0.848,      1.649005825,      1.001225883
            0.852,      1.630505942,       1.01466173
            0.856,      1.612405955,      1.027206152
             0.86,      1.594687828,       1.03884115
            0.864,      1.577332491,      1.049548884
            0.868,      1.560321427,      1.059312216
            0.872,      1.543638465,      1.068115274
            0.876,      1.527270789,      1.075943568
             0.88,      1.511207982,      1.082783864
            0.884,      1.495439255,       1.08862411
            0.888,      1.479950844,      1.093453582
            0.892,      1.464725592,      1.097263243
            0.896,      1.449745233,      1.100045971
              0.9,       1.43499387,      1.101796616
            0.904,      1.420460042,      1.102512351
            0.908,      1.406135791,      1.102193317
            0.912,      1.392013978,       1.10084279
            0.916,      1.378086605,      1.098466632
             0.92,      1.364345288,      1.095072929
            0.924,       1.35078253,      1.090672298
            0.928,      1.337392169,      1.085278273
            0.932,      1.324168677,      1.078906999
            0.936,        1.3111063,      1.071576291
             0.94,      1.298199361,      1.063304826
            0.944,       1.28544371,      1.054112111
            0.948,      1.272837757,      1.044018988
            0.952,      1.260381497,       1.03304779
            0.956,      1.248073801,      1.021221563
             0.96,      1.235910227,      1.008562666
            0.964,      1.223883676,     0.9950918885
            0.968,      1.211986916,     0.9808288607
            0.972,      1.200212829,     0.9657927182
            0.976,      1.188551725,      0.950001383
             0.98,      1.176991517,     0.9334709193
            0.984,       1.16552341,      0.916217837
            0.988,       1.15414545,     0.8982622749
            0.992,      1.142856835,     0.8796263462
            0.996,       1.13164888,     0.8603279851
                1,      1.120503625,     0.8403777188
            1.004,       1.10940095,      0.819782221
            1.008,      1.098326018,     0.7985502977
            1.012,      1.087271495,     0.7766959975
            1.016,      1.076234981,     0.7542376653
             1.02,      1.065213734,     0.7311937203
            1.024,      1.054199323,     0.7075769245
            1.028,      1.043175805,     0.6833908804
            1.032,      1.032123027,     0.6586318733
            1.036,      1.021022144,     0.6332944898
             1.04,      1.009858279,     0.6073756479
            1.044,     0.9986188803,     0.5808740422
            1.048,     0.9872918052,     0.5537881006
            1.052,     0.9758665912,      0.526116773
            1.056,     0.9643355817,     0.4978607282
             1.06,     0.9526902285,     0.4690185157
            1.064,     0.9409157811,     0.4395804357
            1.068,     0.9289907387,     0.4095276813
            1.072,     0.9168894632,     0.3788355419
            1.076,     0.9045826554,     0.3474747521
             1.08,      0.892038706,     0.3154147973
            1.084,     0.8792308152,     0.2826338351
            1.088,      0.866141535,      0.249122754
            1.092,     0.8527530785,     0.2148695321
            1.096,     0.8390316895,     0.1798378205
              1.1,     0.8249265876,     0.1439666083
            1.104,     0.8103859482,      0.107191977
            1.108,     0.7953718317,    0.06946717731
            1.112,     0.7798598742,    0.03076416833
            1.116,     0.7638270879,  -0.008941160048
             1.12,     0.7472405482,   -0.04968675346
            1.124,     0.7300558337,   -0.09153011211
            1.128,     0.7122242952,     -0.134537822
            1.132,     0.6937012674,    -0.1787714949
            1.136,     0.6744476162,    -0.2242853318
             1.14,     0.6544238692,    -0.2711361232
            1.144,     0.6335845696,    -0.3193920549
            1.148,     0.6118803332,    -0.3691292684
            1.152,     0.5892642406,     -0.420422001
            1.156,        0.5656937,    -0.4733386661
             1.16,     0.5411268373,    -0.5279457407
            1.164,     0.5155191105,    -0.5843125694
            1.168,     0.4888227593,    -0.6425125411
            1.172,     0.4609885105,    -0.7026193896
            1.176,     0.4319693799,    -0.7646989884
             1.18,     0.4017246058,    -0.8288019761
            1.184,     0.3702196186,    -0.8949642015
            1.188,     0.3374227017,    -0.9632128638
            1.192,     0.3033042497,      -1.03356883
            1.196,     0.2678396388,     -1.106043051
              1.2,     0.2310093655,     -1.180635674
            1.204,     0.1927938905,      -1.25734283
            1.208,     0.1531690998,     -1.336164652
            1.212,      0.112107599,     -1.417105553
            1.216,    0.06958557583,     -1.500162184
             1.22,    0.02559338934,     -1.585301722
            1.224,   -0.01985505269,     -1.672444886
            1.228,   -0.06672462161,     -1.761473708
            1.232,     -0.114977166,     -1.852265189
            1.236,    -0.1645911517,     -1.944722401
             1.24,    -0.2155625927,     -2.038773785
            1.244,     -0.267887187,     -2.134345769
            1.248,    -0.3215448356,     -2.231341541
            1.252,    -0.3765022773,     -2.329645847
            1.256,    -0.4327262937,     -2.429142334
             1.26,    -0.4901892702,     -2.529719228
            1.264,    -0.5488614014,     -2.631259272
            1.268,    -0.6087016344,     -2.733632053
            1.272,    -0.6696608745,      -2.83670357
            1.276,    -0.7316945595,     -2.940353595
             1.28,    -0.7947684012,     -3.044478422
            1.284,    -0.8588501493,     -3.148975701
            1.288,    -0.9238997233,     -3.253732772
            1.292,    -0.9898709168,     -3.358632547
            1.296,       -1.0567191,     -3.463563475
              1.3,     -1.124400586,     -3.568415343
            1.304,     -1.192863174,      -3.67306538
            1.308,     -1.262041219,     -3.777373346
            1.312,     -1.331862669,      -3.88119219
            1.316,     -1.402259784,     -3.984381686
             1.32,     -1.473170608,     -4.086809619
            1.324,     -1.544530097,     -4.188341027
            1.328,     -1.616263948,     -4.288832528
            1.332,     -1.688295498,     -4.388143292
            1.336,     -1.760557309,     -4.486149564
             1.34,     -1.832989733,     -4.582740164
            1.344,     -1.905524783,     -4.677793869
            1.348,     -1.978074167,     -4.771165012
            1.352,     -2.050536633,     -4.862695525
            1.356,     -2.122816634,     -4.952240548
             1.36,     -2.194834034,     -5.039680105
            1.364,     -2.266517453,     -5.124908256
            1.368,     -2.337793294,     -5.207817487
            1.372,     -2.408582978,     -5.288295257
            1.376,      -2.47880491,     -5.366226653
             1.38,     -2.548371501,     -5.441490478
            1.384,     -2.617185414,     -5.513955891
            1.388,     -2.685148664,     -5.583496565
            1.392,     -2.752182004,     -5.650015608
            1.396,     -2.818230383,     -5.713449367
              1.4,     -2.883240202,     -5.773735674
            1.404,     -2.947130326,     -5.830778061
            1.408,     -3.009792242,     -5.884449805
            1.412,     -3.071121531,     -5.934636335
            1.416,     -3.131044614,     -5.981268198
             1.42,     -3.189512074,     -6.024309678
            1.424,     -3.246470816,     -6.063720905
            1.428,     -3.301848038,      -6.09943663
            1.432,     -3.355559964,      -6.13137896
            1.436,     -3.407529272,     -6.159482914
             1.44,     -3.457690727,     -6.183705445
            1.444,     -3.505983004,     -6.204013198
            1.448,     -3.552341481,     -6.220370015
            1.452,     -3.596703146,     -6.232741842
            1.456,     -3.639016061,     -6.241109527
             1.46,     -3.679237276,     -6.245467176
            1.464,     -3.717319128,     -6.245805617
            1.468,     -3.753203871,     -6.242106677
            1.472,     -3.786839107,     -6.234362959
