             Time,          Y-Force,   Work integrand
                0,  3.150717796e-07,                0
            0.005,  -0.006091907617, -2.278754194e-07
             0.01,   -0.01942374574, -2.898994052e-06
            0.015,   -0.03397883629, -1.138184832e-05
             0.02,   -0.04711131581, -2.798412159e-05
            0.025,   -0.05908389379, -5.469876105e-05
             0.03,   -0.07072994988, -9.405315085e-05
            0.035,   -0.08244010217, -0.0001488327232
             0.04,   -0.09422817202, -0.0002216246606
            0.045,    -0.1060010228, -0.0003147335994
             0.05,    -0.1177078834, -0.0004303694488
            0.055,     -0.129344815, -0.0005707622904
             0.06,    -0.1409233041,  -0.000738156267
            0.065,    -0.1524508071, -0.0009347568877
             0.07,    -0.1639286964,  -0.001162705261
            0.075,    -0.1753560011,  -0.001424082525
             0.08,    -0.1867320056,  -0.001720922164
            0.085,    -0.1980567388,  -0.002055216211
             0.09,    -0.2093305786,  -0.002428915036
            0.095,    -0.2205539228,  -0.002843925666
              0.1,    -0.2317271117,  -0.003302111341
            0.105,    -0.2428504691,  -0.003805292302
             0.11,    -0.2539243464,  -0.004355246909
            0.115,    -0.2649491341,  -0.004953712563
             0.12,    -0.2759252569,  -0.005602386417
            0.125,    -0.2868531672,  -0.006302926038
             0.13,    -0.2977333419,  -0.007056950103
            0.135,    -0.3085662812,  -0.007866039138
             0.14,    -0.3193525079,  -0.008731736271
            0.145,    -0.3300925671,  -0.009655547995
             0.15,     -0.340787024,   -0.01063894491
            0.155,    -0.3514364636,   -0.01168336246
             0.16,    -0.3620414887,   -0.01279020171
            0.165,    -0.3726027197,   -0.01396083007
             0.17,    -0.3831207934,   -0.01519658205
            0.175,    -0.3935963634,   -0.01649876006
             0.18,    -0.4040300993,   -0.01786863517
            0.185,    -0.4144226857,   -0.01930744785
             0.19,    -0.4247748142,   -0.02081640835
            0.195,    -0.4350871685,   -0.02239669665
              0.2,    -0.4453604086,   -0.02404946207
            0.205,    -0.4555951712,   -0.02577582359
             0.21,    -0.4657921041,   -0.02757687218
            0.215,    -0.4759519259,   -0.02945367512
             0.22,    -0.4860754636,      -0.03140728
            0.225,    -0.4961636213,   -0.03343871468
             0.23,    -0.5062172913,   -0.03554898273
            0.235,    -0.5162372812,    -0.0377390586
             0.24,    -0.5262243236,   -0.04000988777
            0.245,    -0.5361791494,   -0.04236239197
             0.25,    -0.5461025446,   -0.04479747436
            0.255,    -0.5559953454,   -0.04731602051
             0.26,    -0.5658583987,   -0.04991889622
            0.265,    -0.5756925424,   -0.05260694644
             0.27,    -0.5854986127,    -0.0553809964
            0.275,    -0.5952774572,    -0.0582418534
             0.28,    -0.6050299372,   -0.06119030773
            0.285,    -0.6147569231,   -0.06422713298
             0.29,     -0.624459293,   -0.06735308654
            0.295,    -0.6341379336,   -0.07056891038
              0.3,    -0.6437937416,   -0.07387533185
            0.305,    -0.6534276245,   -0.07727306444
             0.31,    -0.6630405004,   -0.08076280848
            0.315,    -0.6726332976,   -0.08434525173
             0.32,     -0.682206955,   -0.08802107016
            0.325,    -0.6917624245,    -0.0917909289
             0.33,    -0.7013006699,    -0.0956554828
            0.335,     -0.710822668,    -0.0996153773
             0.34,     -0.720329408,    -0.1036712491
            0.345,    -0.7298218923,    -0.1078237267
             0.35,    -0.7393011379,    -0.1120734319
            0.355,    -0.7487681768,    -0.1164209798
             0.36,    -0.7582240558,    -0.1208669803
            0.365,    -0.7676698362,    -0.1254120381
             0.37,    -0.7771065931,    -0.1300567537
            0.375,    -0.7865354179,    -0.1348017245
             0.38,     -0.795957419,    -0.1396475453
            0.385,    -0.8053737213,    -0.1445948096
             0.39,     -0.814785465,    -0.1496441096
            0.395,     -0.824193804,    -0.1547960366
              0.4,    -0.8335999077,    -0.1600511823
            0.405,    -0.8430049624,    -0.1654101397
             0.41,    -0.8524101702,    -0.1708735034
            0.415,    -0.8618167476,    -0.1764418704
             0.42,     -0.871225925,      -0.18211584
            0.425,    -0.8806389456,     -0.187896015
             0.43,    -0.8900570655,    -0.1937830018
            0.435,     -0.899481554,     -0.199777411
             0.44,      -0.90891369,    -0.2058798578
            0.445,    -0.9183547636,    -0.2120909619
             0.45,    -0.9278060744,    -0.2184113487
            0.455,    -0.9372689285,    -0.2248416483
             0.46,    -0.9467446378,     -0.231382496
            0.465,    -0.9562345198,    -0.2380345327
             0.47,    -0.9657398952,    -0.2447984044
            0.475,    -0.9752620861,    -0.2516747625
             0.48,    -0.9848024136,    -0.2586642628
            0.485,    -0.9943621961,    -0.2657675656
             0.49,     -1.003942748,    -0.2729853353
            0.495,     -1.013545376,    -0.2803182401
              0.5,     -1.023171382,    -0.2877669511
            0.505,     -1.032822053,    -0.2953321417
             0.51,     -1.042498663,    -0.3030144858
            0.515,     -1.052202469,    -0.3108146578
             0.52,      -1.06193471,    -0.3187333316
            0.525,     -1.071696608,    -0.3267711802
             0.53,     -1.081489362,    -0.3349288738
            0.535,     -1.091314141,    -0.3432070773
             0.54,     -1.101172085,    -0.3516064491
            0.545,     -1.111064302,    -0.3601276404
             0.55,     -1.120991874,    -0.3687712955
            0.555,     -1.130955848,    -0.3775380491
             0.56,     -1.140957233,    -0.3864285234
            0.565,     -1.150996994,    -0.3954433254
             0.57,     -1.161076052,    -0.4045830461
            0.575,     -1.171195291,     -0.413848261
             0.58,     -1.181355553,    -0.4232395286
            0.585,     -1.191557635,    -0.4327573863
             0.59,     -1.201802281,    -0.4424023481
            0.595,     -1.212090187,    -0.4521749031
              0.6,     -1.222421999,    -0.4620755157
            0.605,     -1.232798321,    -0.4721046243
             0.61,     -1.243219703,    -0.4822626389
            0.615,     -1.253686647,    -0.4925499378
             0.62,     -1.264199599,    -0.5029668673
            0.625,     -1.274758959,    -0.5135137407
             0.63,     -1.285365078,    -0.5241908379
            0.635,     -1.296018259,    -0.5349984029
             0.64,     -1.306718755,    -0.5459366421
            0.645,      -1.31746677,    -0.5570057237
             0.65,     -1.328262465,    -0.5682057775
            0.655,     -1.339105953,    -0.5795368935
             0.66,     -1.349997306,    -0.5909991205
            0.665,     -1.360936546,    -0.6025924641
             0.67,     -1.371923655,    -0.6143168875
            0.675,     -1.382958578,    -0.6261723116
             0.68,     -1.394041222,    -0.6381586144
            0.685,     -1.405171453,    -0.6502756285
             0.69,     -1.416349098,    -0.6625231388
            0.695,     -1.427573939,    -0.6749008815
              0.7,     -1.438845728,    -0.6874085466
            0.705,     -1.450164186,    -0.7000457789
             0.71,     -1.461529003,    -0.7128121753
            0.715,      -1.47293983,    -0.7257072816
             0.72,     -1.484396278,    -0.7387305891
            0.725,     -1.495897919,    -0.7518815349
             0.73,     -1.507444296,    -0.7651595047
            0.735,     -1.519034922,    -0.7785638329
             0.74,     -1.530669278,    -0.7920937994
            0.745,     -1.542346804,    -0.8057486242
             0.75,     -1.554066893,    -0.8195274629
            0.755,     -1.565828892,    -0.8334294072
             0.76,     -1.577632112,    -0.8474534863
            0.765,     -1.589475827,    -0.8615986676
             0.77,     -1.601359268,    -0.8758638522
            0.775,     -1.613281615,    -0.8902478671
             0.78,     -1.625241985,    -0.9047494598
            0.785,      -1.63723943,    -0.9193672947
             0.79,     -1.649272944,    -0.9340999541
            0.795,      -1.66134146,    -0.9489459374
              0.8,     -1.673443848,    -0.9639036565
            0.805,     -1.685578903,    -0.9789714272
             0.81,     -1.697745329,    -0.9941474593
            0.815,     -1.709941733,      -1.00942985
             0.82,     -1.722166622,     -1.024816581
            0.825,     -1.734418404,     -1.040305514
             0.83,     -1.746695379,     -1.055894387
            0.835,     -1.758995733,     -1.071580805
             0.84,     -1.771317518,     -1.087362227
            0.845,     -1.783658636,     -1.103235953
             0.85,     -1.796016834,     -1.119199116
            0.855,       -1.8083897,     -1.135248677
             0.86,     -1.820774651,     -1.151381417
            0.865,     -1.833168925,     -1.167593925
             0.87,     -1.845569564,     -1.183882583
            0.875,     -1.857973394,     -1.200243555
             0.88,     -1.870377013,     -1.216672766
            0.885,     -1.882776785,       -1.2331659
             0.89,     -1.895168826,     -1.249718387
            0.895,     -1.907549003,     -1.266325392
              0.9,     -1.919912909,     -1.282981802
            0.905,     -1.932255855,     -1.299682206
             0.91,     -1.944572841,     -1.316420879
            0.915,     -1.956858558,     -1.333191775
             0.92,     -1.969107375,     -1.349988511
            0.925,     -1.981313345,     -1.366804367
             0.93,     -1.993470195,     -1.383632278
            0.935,     -2.005571317,     -1.400464817
             0.94,     -2.017609758,     -1.417294186
            0.945,     -2.029578208,     -1.434112202
             0.95,     -2.041469001,     -1.450910297
            0.955,     -2.053274122,     -1.467679509
             0.96,     -2.064985216,     -1.484410493
            0.965,     -2.076593598,     -1.501093522
             0.97,     -2.088090267,     -1.517718492
            0.975,     -2.099465915,     -1.534274929
             0.98,     -2.110710942,     -1.550751993
            0.985,     -2.121815469,     -1.567138492
             0.99,      -2.13276937,     -1.583422899
            0.995,     -2.143562298,     -1.599593374
                1,     -2.154183727,     -1.615637795
            1.005,        -2.164623,     -1.631543797
             1.01,     -2.174869382,      -1.64729881
            1.015,     -2.184912112,     -1.662890111
             1.02,     -2.194740463,     -1.678304864
            1.025,     -2.204343798,     -1.693530177
             1.03,     -2.213711648,     -1.708553165
            1.035,      -2.22283379,     -1.723361023
             1.04,     -2.231700338,     -1.737941102
            1.045,      -2.24030184,     -1.752280998
             1.05,      -2.24862936,     -1.766368632
            1.055,     -2.256674573,     -1.780192335
             1.06,     -2.264429847,      -1.79374093
            1.065,     -2.271888325,     -1.807003816
             1.07,     -2.279044004,     -1.819971042
            1.075,      -2.28589179,     -1.832633379
             1.08,     -2.292427547,     -1.844982369
            1.085,     -2.298648118,     -1.857010363
             1.09,     -2.304551324,     -1.868710545
            1.095,     -2.310135956,     -1.880076932
              1.1,     -2.315401728,     -1.891104361
            1.105,     -2.320349216,     -1.901788455
             1.11,     -2.324979759,     -1.912125547
            1.115,     -2.329295336,     -1.922112601
             1.12,     -2.333298427,     -1.931747101
            1.125,     -2.336991871,      -1.94102694
             1.13,     -2.340378725,      -1.94995031
            1.135,     -2.343462119,     -1.958515584
             1.14,     -2.346245116,     -1.966721198
            1.145,     -2.348730578,      -1.97456554
             1.15,      -2.35092104,     -1.982046836
            1.155,     -2.352818605,     -1.989163064
             1.16,     -2.354424873,     -1.995911888
            1.165,     -2.355740899,     -2.002290614
             1.17,     -2.356767174,     -2.008296169
            1.175,     -2.357503623,     -2.013925097
             1.18,     -2.357949623,     -2.019173569
            1.185,     -2.358104038,     -2.024037408
             1.19,     -2.357965269,      -2.02851213
            1.195,     -2.357531328,     -2.032593006
              1.2,     -2.356799915,     -2.036275126
            1.205,     -2.355768501,     -2.039553474
             1.21,     -2.354434418,     -2.042423003
            1.215,     -2.352794934,     -2.044878705
             1.22,      -2.35084733,     -2.046915682
            1.225,     -2.348588974,      -2.04852921
             1.23,     -2.346017381,     -2.049714799
            1.235,     -2.343130271,     -2.050468248
             1.24,     -2.339925615,     -2.050785687
            1.245,     -2.336401663,      -2.05066361
             1.25,     -2.332556974,     -2.050098903
            1.255,     -2.328390428,     -2.049088863
             1.26,     -2.323901235,     -2.047631208
            1.265,     -2.319088933,     -2.045724079
             1.27,     -2.313953372,     -2.043366028
            1.275,     -2.308494685,     -2.040556003
             1.28,     -2.302713254,     -2.037293313
            1.285,     -2.296609676,     -2.033577606
             1.29,     -2.290184733,     -2.029408841
            1.295,     -2.283439357,     -2.024787259
              1.3,     -2.276374605,     -2.019713368
            1.305,     -2.268991621,     -2.014187904
             1.31,     -2.261291604,     -2.008211805
            1.315,     -2.253275754,     -2.001786169
             1.32,     -2.244945241,      -1.99491222
            1.325,     -2.236301158,     -1.987591274
             1.33,       -2.2273445,     -1.979824717
            1.335,     -2.218076129,     -1.971613976
             1.34,     -2.208496756,     -1.962960504
            1.345,     -2.198606919,      -1.95386576
             1.35,     -2.188406958,     -1.944331194
            1.355,     -2.177896999,     -1.934358227
             1.36,     -2.167076935,      -1.92394824
            1.365,     -2.155946411,     -1.913102561
             1.37,     -2.144504804,     -1.901822454
            1.375,      -2.13275122,     -1.890109113
             1.38,     -2.120684483,     -1.877963662
            1.385,     -2.108303142,     -1.865387155
             1.39,     -2.095605473,     -1.852380595
            1.395,       -2.0825895,     -1.838944947
              1.4,     -2.069253014,     -1.825081159
            1.405,     -2.055593591,     -1.810790188
             1.41,      -2.04160861,     -1.796073019
            1.415,     -2.027295276,     -1.780930689
             1.42,     -2.012650643,     -1.765364309
            1.425,      -1.99767164,     -1.749375101
             1.43,     -1.982355105,     -1.732964425
            1.435,     -1.966697829,     -1.716133826
             1.44,     -1.950696591,     -1.698885069
            1.445,     -1.934348213,     -1.681220191
             1.45,     -1.917649596,     -1.663141539
            1.455,      -1.90059775,     -1.644651794
             1.46,     -1.883189825,     -1.625754009
            1.465,     -1.865423146,     -1.606451639
             1.47,      -1.84729524,     -1.586748563
            1.475,     -1.828803865,     -1.566649117
             1.48,     -1.809947039,     -1.546158118
            1.485,     -1.790723071,     -1.525280889
             1.49,     -1.771130585,     -1.504023282
            1.495,     -1.751168537,     -1.482391693
              1.5,     -1.730836237,     -1.460393075
            1.505,      -1.71013335,     -1.438034941
             1.51,     -1.689059911,     -1.415325372
            1.515,     -1.667616323,     -1.392273013
             1.52,     -1.645803354,     -1.368887065
            1.525,      -1.62362214,     -1.345177285
             1.53,     -1.601074173,     -1.321153972
            1.535,     -1.578161304,     -1.296827962
             1.54,     -1.554885733,     -1.272210616
            1.545,     -1.531250004,     -1.247313809
             1.55,     -1.507256992,     -1.222149911
            1.555,     -1.482909894,      -1.19673178
             1.56,     -1.458212214,      -1.17107273
            1.565,     -1.433167738,      -1.14518652
             1.57,     -1.407780523,     -1.119087323
            1.575,     -1.382054872,     -1.092789708
             1.58,     -1.355995315,     -1.066308612
            1.585,     -1.329606593,     -1.039659325
             1.59,     -1.302893641,     -1.012857465
            1.595,     -1.275861572,    -0.9859189597
              1.6,     -1.248515662,    -0.9588600283
            1.605,      -1.22086133,    -0.9316971577
             1.61,     -1.192904123,    -0.9044470822
            1.615,     -1.164649688,    -0.8771267602
             1.62,     -1.136103762,    -0.8497533529
            1.625,     -1.107272143,    -0.8223442041
             1.63,     -1.078160683,    -0.7949168206
            1.635,     -1.048775265,    -0.7674888557
             1.64,     -1.019121792,    -0.7400780925
            1.645,    -0.9892061703,    -0.7127024269
             1.65,    -0.9590342935,    -0.6853798518
            1.655,    -0.9286120297,    -0.6581284424
             1.66,    -0.8979452067,    -0.6309663419
            1.665,    -0.8670396019,    -0.6039117512
             1.67,    -0.8359009302,    -0.5769829158
            1.675,    -0.8045348351,    -0.5501981177
             1.68,    -0.7729468713,    -0.5235756599
            1.685,    -0.7411424911,    -0.4971338559
             1.69,     -0.709127029,     -0.470891017
            1.695,    -0.6769056842,    -0.4448654406
              1.7,    -0.6444835144,    -0.4190754052
            1.705,    -0.6118654249,    -0.3935391642
             1.71,    -0.5790561698,    -0.3682749468
            1.715,    -0.5460603447,    -0.3433009546
             1.72,    -0.5128823847,    -0.3186353618
            1.725,    -0.4795265511,    -0.2942963087
             1.73,    -0.4459969196,    -0.2703018966
            1.735,    -0.4122973631,    -0.2466701812
             1.74,     -0.378431536,    -0.2234191671
            1.745,    -0.3444028632,    -0.2005668066
             1.75,    -0.3102145315,    -0.1781310005
            1.755,    -0.2758694848,    -0.1561296022
             1.76,    -0.2413704192,    -0.1345804219
            1.765,    -0.2067197755,    -0.1135012304
             1.77,    -0.1719197326,   -0.09290976449
            1.775,    -0.1369721919,   -0.07282372706
             1.78,    -0.1018787625,   -0.05326079071
            1.785,   -0.06664074636,   -0.03423860144
             1.79,   -0.03125912356,   -0.01577478385
            1.795,   0.004265460254,   0.002113050762
              1.8,    0.03993270965,    0.01940729689
            1.805,    0.07574269042,    0.03609034342
             1.81,     0.1116958476,    0.05214456422
            1.815,     0.1477930198,    0.06755230518
             1.82,     0.1840354743,    0.08229587918
            1.825,     0.2204249168,    0.09635754692
             1.83,     0.2569635287,     0.1097195081
            1.835,     0.2936539872,     0.1223638821
             1.84,     0.3304995108,     0.1342726973
