             Time,          Y-Force,   Work integrand
                0, -4.579799486e-06,                0
             0.01,   0.003977297856, -9.965723746e-06
             0.02,     0.0153297964, -0.0001464967072
             0.03,    0.03330832213, -0.0006809646774
             0.04,    0.05726501807,  -0.001972590218
             0.05,    0.08662765705,  -0.004405810469
             0.06,     0.1208797319,  -0.008342603417
             0.07,     0.1595485194,   -0.01408833436
             0.08,     0.2022058017,   -0.02186981022
             0.09,     0.2484712195,   -0.03182416357
              0.1,     0.2980140602,   -0.04399719283
             0.11,      0.350559987,   -0.05834984639
             0.12,     0.4058925928,   -0.07477106279
             0.13,     0.4638511244,   -0.09309532565
             0.14,     0.5243291925,    -0.1131234927
             0.15,     0.5872713968,    -0.1346453963
             0.16,     0.6526688191,    -0.1574631098
             0.17,     0.7205509197,    -0.1814125512
             0.18,     0.7909683085,    -0.2063788236
             0.19,     0.8639628848,    -0.2323001604
              0.2,     0.9395328753,    -0.2591601294
             0.21,       1.01761209,    -0.2869763601
             0.22,      1.098075717,    -0.3157960361
             0.23,      1.180762215,    -0.3456978584
             0.24,      1.265491486,    -0.3767897302
             0.25,       1.35207425,    -0.4091957761
             0.26,      1.440320593,    -0.4430373915
             0.27,      1.530050254,    -0.4784153218
             0.28,      1.621098867,    -0.5153951881
             0.29,      1.713316017,    -0.5539961655
              0.3,       1.80655517,    -0.5941815052
             0.31,      1.900659845,    -0.6358510001
             0.32,      1.995451806,     -0.678837224
             0.33,      2.090720862,    -0.7229040153
             0.34,      2.186216674,    -0.7677476033
             0.35,      2.281646652,    -0.8130044772
             0.36,      2.376675724,    -0.8582616607
             0.37,      2.470924109,    -0.9030650484
             0.38,      2.563968093,    -0.9469305501
             0.39,      2.655345234,     -0.989358595
              0.4,      2.744561789,     -1.029849015
             0.41,      2.831099533,     -1.067914648
             0.42,      2.914417329,     -1.103089465
             0.43,      2.993949731,     -1.134930815
             0.44,      3.069110859,     -1.163019685
             0.45,      3.139311682,     -1.186968762
             0.46,      3.203989373,     -1.206444531
             0.47,       3.26262226,     -1.221173783
             0.48,      3.314726356,     -1.230930556
             0.49,      3.359860599,     -1.235540854
              0.5,      3.397637287,     -1.234891529
             0.51,       3.42772386,     -1.228915503
             0.52,      3.449843174,     -1.217567775
             0.53,       3.46378185,     -1.200817449
             0.54,      3.469410086,     -1.178669776
             0.55,      3.466698803,      -1.15119316
             0.56,       3.45571655,      -1.11851268
             0.57,      3.436616042,     -1.080784497
             0.58,      3.409629724,     -1.038188078
             0.59,        3.3750696,    -0.9909278718
              0.6,      3.333323219,    -0.9392307802
             0.61,      3.284852748,    -0.8833564538
             0.62,      3.230189106,    -0.8235999726
             0.63,      3.169906474,    -0.7602494717
             0.64,      3.104598796,    -0.6935517265
             0.65,      3.034888904,    -0.6237641773
             0.66,      2.961446918,    -0.5512334669
             0.67,      2.884970109,    -0.4763706052
             0.68,      2.806133981,    -0.3995427811
             0.69,      2.725569734,    -0.3210323718
              0.7,      2.643884633,    -0.2411152785
             0.71,       2.56168535,    -0.1601498787
             0.72,      2.479570213,   -0.07857815835
             0.73,      2.398101504,   0.003131107091
             0.74,      2.317785884,    0.08451718188
             0.75,      2.239070196,     0.1651227974
             0.76,      2.162339961,      0.244492189
             0.77,      2.087913133,     0.3221936533
             0.78,      2.016038339,     0.3978296599
             0.79,      1.946906981,     0.4709949989
              0.8,      1.880670029,     0.5412120893
             0.81,      1.817440601,     0.6079228127
             0.82,      1.757278158,     0.6705710865
             0.83,      1.700173349,     0.7287111956
             0.84,      1.646055583,     0.7820372468
             0.85,      1.594824566,     0.8302987763
             0.86,      1.546382833,     0.8731804179
             0.87,      1.500644433,     0.9102640415
             0.88,      1.457516179,     0.9411147362
             0.89,      1.416872458,     0.9654251605
              0.9,      1.378549962,     0.9831081595
             0.91,      1.342371125,     0.9942638721
             0.92,      1.308179158,     0.9990448337
             0.93,       1.27585669,      0.997528958
             0.94,      1.245316134,     0.9897041385
             0.95,       1.21647206,     0.9755706105
             0.96,      1.189215744,     0.9552698126
             0.97,      1.163403525,      0.929126632
             0.98,       1.13886023,     0.8975660361
             0.99,      1.115390644,     0.8609706342
                1,      1.092792664,     0.8195944981
             1.01,      1.070873895,     0.7736013491
             1.02,      1.049468659,     0.7231909249
             1.03,      1.028441649,     0.6687049534
             1.04,      1.007665652,     0.6106157619
             1.05,     0.9869835953,     0.5493922726
             1.06,     0.9661948717,     0.4853454547
             1.07,     0.9450856322,     0.4185630004
             1.08,     0.9234295588,      0.348928443
             1.09,     0.9009484837,     0.2761811098
              1.1,     0.8773073344,     0.1999929181
             1.11,     0.8521568596,     0.1200334221
             1.12,     0.8251804924,    0.03600706088
             1.13,     0.7961148492,   -0.05233989157
             1.14,     0.7647001196,    -0.1452659696
             1.15,     0.7306163753,    -0.2431310236
             1.16,      0.693460914,       -0.3464917
             1.17,     0.6527613058,    -0.4561277163
             1.18,     0.6080079161,    -0.5729653417
             1.19,     0.5586944313,    -0.6979388125
              1.2,     0.5043393681,    -0.8318724534
             1.21,     0.4444694498,    -0.9754300723
             1.22,      0.378634733,     -1.129109567
             1.23,     0.3064435708,     -1.293248333
             1.24,      0.227539502,     -1.468008704
             1.25,     0.1415804239,      -1.65330824
             1.26,    0.04826447551,     -1.848703894
             1.27,   -0.05258009256,     -2.053283742
             1.28,    -0.1609182353,     -2.265680204
             1.29,    -0.2765408929,     -2.484303211
              1.3,    -0.3991999129,     -2.707682892
             1.31,    -0.5287114143,     -2.934624655
             1.32,    -0.6648866685,     -3.164048465
             1.33,    -0.8074302601,     -3.394726243
             1.34,    -0.9558968094,     -3.625115664
             1.35,       -1.1096606,     -3.853300383
             1.36,     -1.267958977,     -4.077059924
             1.37,     -1.429936601,     -4.294083163
             1.38,     -1.594681044,     -4.502236139
             1.39,     -1.761282801,     -4.699748768
              1.4,     -1.928834143,     -4.885187323
             1.41,     -2.096336404,     -5.057177487
             1.42,     -2.262589083,      -5.21408121
             1.43,     -2.426139992,     -5.353861514
             1.44,     -2.585349947,     -5.474228868
             1.45,     -2.738640377,     -5.573280343
             1.46,     -2.884931782,     -5.650598815
             1.47,     -3.023866195,     -5.707590237
             1.48,     -3.155283144,     -5.745910844
             1.49,     -3.278400189,      -5.76549932
              1.5,      -3.39173567,     -5.764683496
             1.51,     -3.493763791,     -5.741859288
             1.52,     -3.583358839,     -5.696411227
             1.53,     -3.659736233,     -5.628457341
             1.54,     -3.722371841,     -5.538679929
             1.55,     -3.771081531,     -5.428513029
             1.56,     -3.805918401,     -5.299851763
             1.57,     -3.826926999,     -5.154410769
             1.58,     -3.834163999,     -4.993682443
             1.59,     -3.827913147,     -4.819285175
              1.6,     -3.808456657,     -4.632538671
             1.61,     -3.775567367,     -4.433736138
             1.62,     -3.728645739,     -4.222734449
             1.63,     -3.667551813,     -4.000515474
             1.64,     -3.593059752,      -3.76967379
             1.65,     -3.506445261,     -3.533397121
             1.66,     -3.408828278,     -3.294345549
             1.67,     -3.300800655,      -3.05416089
             1.68,     -3.182317982,     -2.813393765
             1.69,     -3.052942803,     -2.572060156
              1.7,     -2.912573516,     -2.330909155
             1.71,     -2.762095761,     -2.092278847
             1.72,     -2.603218365,     -1.859472722
             1.73,     -2.437683174,     -1.635246333
             1.74,     -2.266572365,     -1.420832993
             1.75,     -2.090152211,     -1.216193951
             1.76,      -1.90831487,      -1.02110061
             1.77,     -1.721290386,    -0.8361115732
             1.78,     -1.530144464,    -0.6627643996
             1.79,     -1.336706012,    -0.5029790086
              1.8,     -1.142939558,    -0.3582064586
             1.81,     -0.950241126,    -0.2289452177
             1.82,    -0.7592489939,    -0.1148901016
             1.83,    -0.5702486316,    -0.0154602849
             1.84,    -0.3836964797,    0.06977524116
             1.85,    -0.2004048645,     0.1410473172
             1.86,   -0.02133088313,     0.1986216685
             1.87,     0.1527174981,      0.243014263
             1.88,     0.3211864849,     0.2750034105
             1.89,     0.4837638119,     0.2955223906
              1.9,     0.6403541689,     0.3055466952
             1.91,       0.79086926,     0.3059605882
             1.92,     0.9347336943,     0.2974339303
             1.93,      1.070554875,     0.2804783211
             1.94,      1.196589033,     0.2557282337
             1.95,       1.31193672,     0.2241848945
             1.96,      1.417490907,     0.1871165091
             1.97,      1.515561658,     0.1456509113
             1.98,      1.608007904,     0.1004430878
             1.99,      1.694114456,    0.05177324597
                2,       1.77022395,  5.256129311e-14
              nan,     0.8781044218,     -2.295992518
