             Time,          Y-Force,   Work integrand
                0,  3.437849045e-07,                0
           0.0025,  -0.001694020048, -1.586158614e-08
            0.005,  -0.006115778733, -2.287683482e-07
           0.0075,   -0.01234771383, -1.037931461e-06
             0.01,   -0.01951005511, -2.911875725e-06
           0.0125,    -0.0268661314, -6.257394862e-06
            0.015,    -0.0339605388, -1.137571923e-05
           0.0175,   -0.04065068876, -1.851051344e-05
             0.02,   -0.04697213342, -2.790144725e-05
           0.0225,    -0.0530239426, -3.981207453e-05
            0.025,   -0.05892179512, -5.454869314e-05
           0.0275,   -0.06476096181, -7.245309683e-05
             0.03,   -0.07059802443, -9.387772299e-05
           0.0325,   -0.07645644456, -0.0001191672246
            0.035,   -0.08233852001, -0.0001486493325
           0.0375,   -0.08823531636, -0.0001826315948
             0.04,   -0.09413460584, -0.0002214045929
           0.0425,      -0.10002612, -0.0002652493431
            0.045,    -0.1059033648, -0.0003144436375
           0.0475,    -0.1117633712, -0.0003692657419
             0.05,    -0.1176057285, -0.0004299959447
           0.0525,    -0.1234314348, -0.0004969161525
            0.055,    -0.1292419219,  -0.000570308252
           0.0575,    -0.1350384613, -0.0006504523107
             0.06,    -0.1408219265, -0.0007376252509
           0.0625,    -0.1465927752, -0.0008321001032
            0.065,    -0.1523511462, -0.0009341458137
           0.0675,    -0.1580969958,  -0.001044027478
             0.07,    -0.1638302097,   -0.00116200672
           0.0725,    -0.1695506773,   -0.00128834208
            0.075,    -0.1752583276,  -0.001423289309
           0.0775,     -0.180953133,   -0.00156710149
             0.08,    -0.1866351052,  -0.001720029129
           0.0825,    -0.1923042781,  -0.001882320096
            0.085,    -0.1979606971,  -0.002054219595
           0.0875,    -0.2036044092,  -0.002235970101
             0.09,    -0.2092354597,  -0.002427811347
           0.0925,    -0.2148538904,  -0.002629980313
            0.095,    -0.2204597413,  -0.002842711245
           0.0975,    -0.2260530509,  -0.003066235681
              0.1,     -0.231633858,  -0.003300782477
           0.1025,    -0.2372022048,  -0.003546577874
            0.105,    -0.2427581335,  -0.003803845469
           0.1075,    -0.2483016897,  -0.004072806293
             0.11,    -0.2538329214,  -0.004353678809
           0.1125,    -0.2593518782,  -0.004646678939
            0.115,     -0.264858612,  -0.004952020085
           0.1175,    -0.2703531775,  -0.005269913173
             0.12,    -0.2758356291,  -0.005600566614
           0.1225,     -0.281306024,  -0.005944186389
            0.125,    -0.2867644196,  -0.006300976016
           0.1275,    -0.2922108769,  -0.006671136652
             0.13,    -0.2976454571,  -0.007054867036
           0.1325,    -0.3030682233,  -0.007452363557
            0.135,    -0.3084792398,  -0.007863820261
           0.1375,    -0.3138785716,  -0.008289428858
             0.14,    -0.3192662868,  -0.008729378815
           0.1425,    -0.3246424537,  -0.009183857295
            0.145,     -0.330007142,  -0.009653049222
           0.1475,    -0.3353604224,    -0.0101371373
             0.15,    -0.3407023672,   -0.01063630203
           0.1525,    -0.3460330495,   -0.01115072173
            0.155,     -0.351352544,   -0.01168057259
           0.1575,    -0.3566609261,   -0.01222602865
             0.16,     -0.361958273,   -0.01278726187
           0.1625,    -0.3672446619,   -0.01336444209
            0.165,    -0.3725201717,   -0.01395773713
           0.1675,     -0.377784882,   -0.01456731274
             0.17,    -0.3830388735,   -0.01519333268
           0.1725,    -0.3882822278,   -0.01583595871
            0.175,    -0.3935150275,   -0.01649535062
           0.1775,    -0.3987373561,    -0.0171716663
             0.18,    -0.4039492981,   -0.01786506166
           0.1825,    -0.4091509385,   -0.01857569075
            0.185,    -0.4143423633,   -0.01930370572
           0.1875,    -0.4195236593,   -0.02004925691
             0.19,    -0.4246949143,    -0.0208124928
           0.1925,    -0.4298562166,   -0.02159356006
            0.195,    -0.4350076554,    -0.0223926036
           0.1975,    -0.4401493206,   -0.02320976657
              0.2,    -0.4452813025,   -0.02404519033
           0.2025,    -0.4504036897,   -0.02489901445
            0.205,    -0.4555165712,   -0.02577137671
           0.2075,    -0.4606200345,   -0.02666241312
             0.21,    -0.4657141685,   -0.02757225806
           0.2125,    -0.4707990647,   -0.02850104435
            0.215,     -0.475874819,   -0.02944890346
           0.2175,     -0.480941532,    -0.0304159655
             0.22,    -0.4859993062,   -0.03140235917
           0.2225,    -0.4910482442,   -0.03240821161
            0.225,    -0.4960884454,   -0.03343364824
           0.2275,    -0.5011200064,   -0.03447879274
             0.23,     -0.506143022,   -0.03554376718
           0.2325,    -0.5111575876,   -0.03662869215
            0.235,    -0.5161638003,   -0.03773368685
           0.2375,    -0.5211617587,   -0.03885886916
             0.24,    -0.5261515628,   -0.04000435562
           0.2425,    -0.5311333133,   -0.04117026142
            0.245,    -0.5361071116,   -0.04235670041
           0.2475,    -0.5410730595,   -0.04356378512
             0.25,    -0.5460312594,   -0.04479162675
           0.2525,    -0.5509818139,   -0.04604033523
            0.255,    -0.5559248256,   -0.04731001918
           0.2575,    -0.5608603998,   -0.04860078613
             0.26,    -0.5657886389,   -0.04991274214
           0.2625,    -0.5707096478,   -0.05124599223
            0.265,    -0.5756235317,   -0.05260064022
           0.2675,    -0.5805303958,   -0.05397678871
             0.27,    -0.5854303464,   -0.05537453925
           0.2725,    -0.5903234904,   -0.05679399226
            0.275,    -0.5952099356,    -0.0582352471
           0.2775,    -0.6000897896,   -0.05969840202
             0.28,    -0.6049631607,   -0.06118355422
           0.2825,    -0.6098301574,   -0.06269079984
            0.285,    -0.6146908895,   -0.06422023407
           0.2875,    -0.6195454671,   -0.06577195113
             0.29,    -0.6243940014,    -0.0673460443
           0.2925,    -0.6292366036,   -0.06894260588
            0.295,    -0.6340733844,   -0.07056172714
           0.2975,    -0.6389044565,   -0.07220349858
              0.3,    -0.6437299331,   -0.07386800983
           0.3025,    -0.6485499281,   -0.07555534967
            0.305,    -0.6533645557,   -0.07726560605
           0.3075,     -0.658173931,   -0.07899886609
             0.31,    -0.6629781698,   -0.08075521618
           0.3125,    -0.6677773887,   -0.08253474195
            0.315,    -0.6725717048,   -0.08433752827
           0.3175,    -0.6773612362,   -0.08616365932
             0.32,    -0.6821461009,   -0.08801321852
           0.3225,    -0.6869264181,   -0.08988628867
            0.325,    -0.6917023078,   -0.09178295193
           0.3275,    -0.6964738911,   -0.09370328989
             0.33,    -0.7012412899,   -0.09564738353
           0.3325,     -0.706004627,   -0.09761531332
            0.335,    -0.7107640254,   -0.09960715907
           0.3375,    -0.7155196089,    -0.1016230001
             0.34,    -0.7202715021,    -0.1036629151
           0.3425,    -0.7250198305,    -0.1057269825
            0.345,    -0.7297647211,    -0.1078152803
           0.3475,    -0.7345063018,    -0.1099278858
             0.35,    -0.7392447016,    -0.1120648765
           0.3525,      -0.74398005,    -0.1142263289
            0.355,    -0.7487124772,    -0.1164123195
           0.3575,    -0.7534421142,    -0.1186229242
             0.36,    -0.7581690928,    -0.1208582187
           0.3625,    -0.7628935461,    -0.1231182786
            0.365,    -0.7676156079,     -0.125403179
           0.3675,    -0.7723354129,    -0.1277129947
             0.37,    -0.7770530975,    -0.1300478007
           0.3725,    -0.7817687989,    -0.1324076715
            0.375,    -0.7864826563,    -0.1347926818
           0.3775,    -0.7911948088,     -0.137202906
             0.38,    -0.7959053959,    -0.1396384181
           0.3825,    -0.8006145575,    -0.1420992921
            0.385,    -0.8053224346,    -0.1445856018
           0.3875,      -0.81002917,    -0.1470974212
             0.39,    -0.8147349088,    -0.1496348244
           0.3925,    -0.8194397973,    -0.1521978857
            0.395,    -0.8241439817,    -0.1547866792
           0.3975,    -0.8288476084,    -0.1574012787
              0.4,    -0.8335508238,    -0.1600417582
           0.4025,    -0.8382537754,    -0.1627081914
            0.405,    -0.8429566129,    -0.1654006528
           0.4075,    -0.8476594879,    -0.1681192168
             0.41,    -0.8523625534,    -0.1708639582
           0.4125,    -0.8570659627,    -0.1736349519
            0.415,    -0.8617698687,    -0.1764322727
           0.4175,    -0.8664744245,    -0.1792559954
             0.42,    -0.8711797839,    -0.1821061949
           0.4225,    -0.8758861022,    -0.1849829467
            0.425,     -0.880593537,    -0.1878863265
           0.4275,     -0.885302247,    -0.1908164106
             0.43,    -0.8900123914,    -0.1937732753
           0.4325,    -0.8947241292,    -0.1967569973
            0.435,    -0.8994376184,    -0.1997676528
           0.4375,    -0.9041530197,    -0.2028053191
             0.44,    -0.9088704922,    -0.2058700729
           0.4425,    -0.9135901978,    -0.2089619922
            0.445,    -0.9183123009,    -0.2120811553
           0.4475,    -0.9230369636,    -0.2152276405
             0.45,    -0.9277643494,    -0.2184015264
           0.4525,    -0.9324946226,    -0.2216028922
            0.455,     -0.937227945,    -0.2248318167
           0.4575,     -0.941964481,    -0.2280883796
             0.46,    -0.9467043945,    -0.2313726606
           0.4625,    -0.9514478498,    -0.2346847399
            0.465,    -0.9561950126,    -0.2380246982
           0.4675,    -0.9609460486,    -0.2413926166
             0.47,    -0.9657011242,    -0.2447885767
           0.4725,    -0.9704604058,    -0.2482126602
            0.475,    -0.9752240589,    -0.2516649492
           0.4775,    -0.9799922477,    -0.2551455256
             0.48,    -0.9847651358,    -0.2586544715
           0.4825,    -0.9895428858,     -0.262191869
            0.485,     -0.994325661,    -0.2657578007
           0.4875,    -0.9991136257,    -0.2693523498
             0.49,     -1.003906945,    -0.2729756002
           0.4925,     -1.008705786,    -0.2766276362
            0.495,     -1.013510312,    -0.2803085424
           0.4975,     -1.018320688,    -0.2840184031
              0.5,     -1.023137074,    -0.2877573021
           0.5025,     -1.027959628,    -0.2915253229
            0.505,     -1.032788504,    -0.2953225486
           0.5075,     -1.037623861,    -0.2991490627
             0.51,     -1.042465854,    -0.3030049495
           0.5125,     -1.047314644,    -0.3068902939
            0.515,     -1.052170389,    -0.3108051816
           0.5175,     -1.057033249,    -0.3147496979
             0.52,     -1.061903379,    -0.3187239277
           0.5225,     -1.066780929,    -0.3227279546
            0.525,     -1.071666046,    -0.3267618615
           0.5275,     -1.076558876,    -0.3308257308
             0.53,     -1.081459561,    -0.3349196448
           0.5325,     -1.086368248,    -0.3390436862
            0.535,     -1.091285079,    -0.3431979376
           0.5375,     -1.096210202,    -0.3473824828
             0.54,     -1.101143758,    -0.3515974043
           0.5425,     -1.106085889,    -0.3558427842
            0.545,     -1.111036731,    -0.3601187037
           0.5475,     -1.115996417,    -0.3644252427
             0.55,     -1.120965076,    -0.3687624798
           0.5525,     -1.125942835,    -0.3731304931
            0.555,     -1.130929818,    -0.3775293596
           0.5575,     -1.135926148,    -0.3819591563
             0.56,     -1.140931949,    -0.3864199601
           0.5625,     -1.145947343,    -0.3909118471
            0.565,      -1.15097245,    -0.3954348929
           0.5675,     -1.156007387,    -0.3999891722
             0.57,     -1.161052266,    -0.4045747576
           0.5725,     -1.166107195,    -0.4091917203
            0.575,      -1.17117228,      -0.41384013
           0.5775,      -1.17624762,    -0.4185200547
             0.58,     -1.181333314,    -0.4232315611
           0.5825,     -1.186429459,    -0.4279747155
            0.585,     -1.191536149,     -0.432749583
           0.5875,      -1.19665348,     -0.437556228
             0.59,     -1.201781542,    -0.4423947137
           0.5925,     -1.206920424,    -0.4472651015
            0.595,      -1.21207021,    -0.4521674507
           0.5975,     -1.217230977,    -0.4571018182
              0.6,     -1.222402801,    -0.4620682589
           0.6025,     -1.227585752,    -0.4670668254
            0.605,     -1.232779897,    -0.4720975691
           0.6075,     -1.237985304,    -0.4771605398
             0.61,     -1.243202037,    -0.4822557859
           0.6125,      -1.24843016,    -0.4873833549
            0.615,     -1.253669732,    -0.4925432923
           0.6175,     -1.258920812,    -0.4977356415
             0.62,     -1.264183451,    -0.5029604428
           0.6225,     -1.269457697,    -0.5082177341
            0.625,     -1.274743594,    -0.5135075512
           0.6275,      -1.28004118,    -0.5188299261
             0.63,     -1.285350492,    -0.5241848895
           0.6325,     -1.290671565,    -0.5295724701
            0.635,     -1.296004433,    -0.5349926953
           0.6375,     -1.301349128,    -0.5404455907
             0.64,     -1.306705682,    -0.5459311802
           0.6425,      -1.31207412,    -0.5514494846
            0.645,     -1.317454466,    -0.5570005217
           0.6475,     -1.322846737,    -0.5625843064
             0.65,     -1.328250945,    -0.5682008497
           0.6525,     -1.333667102,    -0.5738501607
            0.655,     -1.339095214,     -0.579532246
           0.6575,      -1.34453529,      -0.58524711
             0.66,     -1.349987334,    -0.5909947549
           0.6625,     -1.355451348,    -0.5967751809
            0.665,     -1.360927334,    -0.6025883855
           0.6675,     -1.366415289,     -0.608434363
             0.67,     -1.371915208,    -0.6143131051
           0.6725,     -1.377427083,    -0.6202246011
            0.675,     -1.382950905,    -0.6261688373
           0.6775,     -1.388486661,    -0.6321457973
             0.68,     -1.394034334,    -0.6381554614
           0.6825,     -1.399593907,    -0.6441978065
            0.685,     -1.405165354,    -0.6502728058
           0.6875,     -1.410748649,    -0.6563804293
             0.69,     -1.416343767,    -0.6625206454
           0.6925,      -1.42195068,    -0.6686934197
            0.695,     -1.427569359,    -0.6748987164
           0.6975,     -1.433199779,    -0.6811364973
              0.7,     -1.438841908,    -0.6874067216
           0.7025,     -1.444495712,    -0.6937093438
            0.705,     -1.450161153,    -0.7000443147
           0.7075,     -1.455838189,    -0.7064115816
             0.71,     -1.461526769,    -0.7128110856
           0.7125,     -1.467226848,     -0.719242768
            0.715,     -1.472938377,    -0.7257065658
           0.7175,     -1.478661306,    -0.7322024138
             0.72,     -1.484395585,    -0.7387302443
           0.7225,     -1.490141161,    -0.7452899864
            0.725,     -1.495897982,    -0.7518815667
           0.7275,     -1.501665992,    -0.7585049077
             0.73,     -1.507445131,    -0.7651599284
           0.7325,     -1.513235337,    -0.7718465441
            0.735,     -1.519036547,    -0.7785646658
           0.7375,     -1.524848691,    -0.7853142006
             0.74,     -1.530671699,     -0.792095052
           0.7425,     -1.536505496,    -0.7989071192
            0.745,     -1.542350009,    -0.8057502982
           0.7475,     -1.548205158,    -0.8126244812
             0.75,     -1.554070865,    -0.8195295575
           0.7525,     -1.559947048,    -0.8264654117
            0.755,     -1.565833624,    -0.8334319261
           0.7575,     -1.571730509,    -0.8404289781
             0.76,     -1.577637614,    -0.8474564416
           0.7625,     -1.583554847,    -0.8545141861
            0.765,     -1.589482112,    -0.8616020747
           0.7675,     -1.595419315,    -0.8687199699
             0.77,     -1.601366351,    -0.8758677258
           0.7725,     -1.607323113,    -0.8830451919
            0.775,     -1.613289492,    -0.8902522136
           0.7775,     -1.619265375,    -0.8974886313
             0.78,     -1.625250643,    -0.9047542795
           0.7825,     -1.631245182,    -0.9120489921
            0.785,     -1.637248873,     -0.919372597
           0.7875,     -1.643261568,    -0.9267249037
             0.79,     -1.649283149,    -0.9341057343
           0.7925,     -1.655313471,    -0.9415148927
            0.795,      -1.66135243,    -0.9489522038
           0.7975,     -1.667399865,    -0.9564174556
              0.8,     -1.673455623,    -0.9639104386
           0.8025,     -1.679519547,    -0.9714309373
            0.805,       -1.6855915,    -0.9789787434
           0.8075,     -1.691671275,    -0.9865536052
             0.81,      -1.69775872,    -0.9941553002
           0.8125,     -1.703853655,     -1.001783585
            0.815,     -1.709955899,     -1.009438212
           0.8175,     -1.716065264,     -1.017118927
             0.82,     -1.722181557,     -1.024825468
           0.8225,     -1.728304579,     -1.032557565
            0.825,     -1.734434121,     -1.040314941
           0.8275,     -1.740569968,     -1.048097308
             0.83,     -1.746711897,     -1.055904372
           0.8325,     -1.752859675,     -1.063735828
            0.835,     -1.759013062,     -1.071591362
           0.8375,     -1.765171808,      -1.07947065
             0.84,     -1.771335654,     -1.087373361
           0.8425,     -1.777504334,      -1.09529915
            0.845,     -1.783677571,     -1.103247665
           0.8475,     -1.789855077,     -1.111218541
             0.85,      -1.79603656,     -1.119211408
           0.8525,      -1.80222171,     -1.127225877
            0.855,     -1.808410213,     -1.135261554
           0.8575,     -1.814601741,     -1.143318031
             0.86,     -1.820795957,      -1.15139489
           0.8625,      -1.82699251,     -1.159491697
            0.865,     -1.833191039,     -1.167608009
           0.8675,     -1.839391166,     -1.175743367
             0.87,     -1.845592501,     -1.183897297
           0.8725,     -1.851794639,     -1.192069311
            0.875,     -1.857997158,     -1.200258906
           0.8775,     -1.864199624,     -1.208465564
             0.88,     -1.870401588,     -1.216688751
           0.8825,     -1.876602588,     -1.224927922
            0.885,     -1.882802151,     -1.233182514
           0.8875,     -1.888999784,     -1.241451949
             0.89,     -1.895194985,     -1.249735637
           0.8925,     -1.901387231,     -1.258032964
            0.895,     -1.907575981,     -1.266343301
           0.8975,     -1.913760674,     -1.274666001
              0.9,     -1.919940731,     -1.283000394
           0.9025,     -1.926115552,     -1.291345791
            0.905,     -1.932284519,     -1.299701486
           0.9075,     -1.938446992,     -1.308066749
             0.91,     -1.944602321,     -1.316440837
           0.9125,     -1.950749832,     -1.324822983
            0.915,     -1.956888834,     -1.333212402
           0.9175,     -1.963018619,      -1.34160829
             0.92,     -1.969138455,     -1.350009819
