             Time,          Y-Force,   Work integrand
                0,  1.204449203e-05,                0
             0.01,   -0.00143840026, -2.146812388e-07
             0.02,  -0.005660887281, -3.362567045e-06
             0.03,   -0.01248831871, -1.660634181e-05
             0.04,   -0.02172297585, -5.109243919e-05
             0.05,   -0.03319644828,  -0.000121374514
             0.06,   -0.04672962947, -0.0002447697991
             0.07,   -0.06215424849,  -0.000440844546
             0.08,   -0.07930325035, -0.0007308587552
             0.09,    -0.0980131723,  -0.001137271342
              0.1,    -0.1181243471,  -0.001683271947
             0.11,     -0.139480833,  -0.002392340377
             0.12,    -0.1619305059,  -0.003287836993
             0.13,    -0.1853250965,  -0.004392621769
             0.14,    -0.2095202728,  -0.005728703299
             0.15,    -0.2343757535,  -0.007316918055
             0.16,    -0.2597554963,  -0.009176642174
             0.17,    -0.2855282564,   -0.01132554967
             0.18,     -0.311569024,   -0.01377945166
             0.19,    -0.3377616673,   -0.01655226383
              0.2,    -0.3640019702,   -0.01965610639
             0.21,    -0.3901991362,   -0.02310144721
             0.22,    -0.4162745088,   -0.02689716111
             0.23,    -0.4421587615,   -0.03105048849
             0.24,    -0.4677901532,   -0.03556702093
             0.25,    -0.4931147961,   -0.04045082312
             0.26,    -0.5180876555,   -0.04570465679
             0.27,    -0.5426729824,   -0.05133021639
             0.28,    -0.5668440919,   -0.05732834407
             0.29,    -0.5905828127,   -0.06369922866
              0.3,    -0.6138786965,   -0.07044258042
             0.31,    -0.6367280659,   -0.07755777635
             0.32,    -0.6591330862,   -0.08504398731
             0.33,    -0.6811009607,   -0.09290029802
             0.34,    -0.7026432457,    -0.1011258212
             0.35,    -0.7237752606,    -0.1097198059
             0.36,    -0.7445155991,    -0.1186817426
             0.37,    -0.7648857231,    -0.1280114658
             0.38,    -0.7849095885,    -0.1377092477
             0.39,    -0.8046132796,    -0.1477758784
              0.4,    -0.8240246733,    -0.1582127373
             0.41,    -0.8431731519,    -0.1690218577
             0.42,    -0.8620893108,     -0.180205977
             0.43,    -0.8808045768,    -0.1917685523
             0.44,    -0.8993507234,    -0.2037137311
             0.45,    -0.9177593959,    -0.2160462978
             0.46,    -0.9360617631,    -0.2287716228
             0.47,    -0.9542882706,    -0.2418956151
             0.48,    -0.9724683922,     -0.255424658
             0.49,    -0.9906303832,    -0.2693655271
              0.5,     -1.008801133,    -0.2837253186
             0.51,     -1.027006131,    -0.2985113993
             0.52,      -1.04526946,    -0.3137313567
             0.53,     -1.063613753,    -0.3293929362
             0.54,     -1.082060163,     -0.345503974
             0.55,     -1.100628355,    -0.3620723342
             0.56,     -1.119336496,     -0.379105839
             0.57,     -1.138201208,    -0.3966121864
             0.58,     -1.157237545,    -0.4145988663
             0.59,     -1.176458996,    -0.4330730857
              0.6,     -1.195877509,    -0.4520416985
             0.61,     -1.215503504,    -0.4715111301
             0.62,     -1.235345876,    -0.4914872981
             0.63,     -1.255411992,    -0.5119755276
             0.64,     -1.275707681,    -0.5329804636
             0.65,      -1.29623724,    -0.5545059869
             0.66,     -1.317003497,    -0.5765551569
             0.67,     -1.338007951,    -0.5991301898
             0.68,     -1.359250889,    -0.6222324347
             0.69,     -1.380731389,    -0.6458623055
              0.7,     -1.402447242,      -0.67001917
             0.71,     -1.424394909,    -0.6947012557
             0.72,     -1.446569603,     -0.719905615
             0.73,     -1.468965461,    -0.7456281385
             0.74,     -1.491575651,    -0.7718635509
             0.75,     -1.514392363,    -0.7986053479
             0.76,     -1.537406724,    -0.8258456952
             0.77,     -1.560608744,    -0.8535753425
             0.78,     -1.583987341,     -0.881783577
             0.79,     -1.607530404,    -0.9104582007
              0.8,     -1.631224822,    -0.9395854975
             0.81,     -1.655056459,    -0.9691501694
             0.82,      -1.67901008,    -0.9991352445
             0.83,     -1.703069257,     -1.029521971
             0.84,     -1.727216287,     -1.060289716
             0.85,     -1.751432151,     -1.091415891
             0.86,     -1.775696505,     -1.122875891
             0.87,     -1.799987656,     -1.154643032
             0.88,     -1.824282467,     -1.186688448
             0.89,     -1.848556202,     -1.218980939
              0.9,     -1.872782343,     -1.251486801
             0.91,     -1.896932456,     -1.284169685
             0.92,     -1.920976158,     -1.316990518
             0.93,      -1.94488113,     -1.349907471
             0.94,     -1.968613144,     -1.382875927
             0.95,     -1.992136015,     -1.415848418
             0.96,     -2.015411495,     -1.448774522
             0.97,     -2.038399142,     -1.481600734
             0.98,     -2.061056237,     -1.514270384
             0.99,     -2.083337787,     -1.546723619
                1,      -2.10519665,     -1.578897487
             1.01,     -2.126583757,     -1.610726107
             1.02,     -2.147448399,     -1.642140906
             1.03,     -2.167738542,     -1.673070903
             1.04,     -2.187401154,     -1.703443023
             1.05,      -2.20638257,     -1.733182458
             1.06,     -2.224628918,     -1.762213101
             1.07,     -2.242086645,     -1.790458087
             1.08,     -2.258703166,     -1.817840447
             1.09,     -2.274427632,     -1.844283898
              1.1,     -2.289211754,       -1.8697137
             1.11,     -2.303010655,     -1.894057568
             1.12,     -2.315783641,      -1.91724654
             1.13,     -2.327494844,     -1.939215754
             1.14,     -2.338113654,     -1.959905066
             1.15,     -2.347614896,     -1.979259446
             1.16,     -2.355978717,     -1.997229125
             1.17,     -2.363190142,     -2.013769438
             1.18,     -2.369238301,     -2.028840357
             1.19,     -2.374115359,     -2.042405742
              1.2,     -2.377815288,     -2.054432409
             1.21,     -2.380332637,     -2.064889171
             1.22,     -2.381661496,     -2.073746008
             1.23,      -2.38179469,     -2.080973425
             1.24,     -2.380723193,     -2.086541989
             1.25,     -2.378435584,       -2.0904219
             1.26,     -2.374917626,     -2.092582669
             1.27,     -2.370152096,     -2.092993028
             1.28,     -2.364119108,     -2.091621283
             1.29,     -2.356797079,     -2.088436255
              1.3,     -2.348164163,     -2.083408654
             1.31,      -2.33819986,     -2.076512624
             1.32,     -2.326886405,     -2.067727105
             1.33,     -2.314209534,     -2.057036636
             1.34,     -2.300158295,     -2.044431296
             1.35,     -2.284723998,     -2.029905874
             1.36,     -2.267898899,     -2.013458786
             1.37,      -2.24967533,     -1.995091384
             1.38,     -2.230045712,      -1.97480806
             1.39,     -2.209003485,     -1.952617152
              1.4,     -2.186544261,     -1.928532039
             1.41,     -2.162666398,     -1.902571702
             1.42,     -2.137370613,     -1.874760436
             1.43,     -2.110658871,     -1.845126904
             1.44,     -2.082533257,     -1.813703204
             1.45,     -2.052995499,     -1.780524502
             1.46,      -2.02204738,     -1.745629459
             1.47,     -1.989691816,     -1.709061205
             1.48,     -1.955934009,     -1.670868363
             1.49,     -1.920782016,     -1.631105519
              1.5,     -1.884246319,     -1.589832832
             1.51,      -1.84633854,     -1.547114916
             1.52,     -1.807070053,     -1.503019674
             1.53,     -1.766451429,     -1.457617868
             1.54,     -1.724493003,     -1.410983624
             1.55,     -1.681206035,     -1.363195406
             1.56,      -1.63660357,     -1.314336688
             1.57,      -1.59070054,     -1.264495978
             1.58,     -1.543513432,     -1.213766483
             1.59,     -1.495060085,      -1.16224588
              1.6,     -1.445359809,     -1.110036334
             1.61,     -1.394433576,     -1.057244547
             1.62,     -1.342303797,     -1.003981494
             1.63,     -1.288993769,    -0.9503618938
             1.64,     -1.234527159,    -0.8965037466
             1.65,     -1.178927861,     -0.842528164
             1.66,     -1.122220192,      -0.78855944
             1.67,     -1.064429148,    -0.7347251466
             1.68,     -1.005580498,    -0.6811560956
             1.69,    -0.9457007552,     -0.627986203
              1.7,    -0.8848171923,    -0.5753523793
             1.71,    -0.8229579037,    -0.5233944374
             1.72,    -0.7601517516,    -0.4722549178
             1.73,    -0.6964281149,    -0.4220787903
             1.74,    -0.6318165359,    -0.3730131101
             1.75,    -0.5663464721,    -0.3252067633
             1.76,    -0.5000471947,    -0.2788103142
             1.77,    -0.4329476713,    -0.2339758535
             1.78,    -0.3650762614,    -0.1908567584
             1.79,    -0.2964601787,    -0.1496073692
              1.8,    -0.2271248486,    -0.1103826764
             1.81,     -0.157093338,   -0.07333812155
             1.82,   -0.08638593008,    -0.0386295419
             1.83,   -0.01501983673,  -0.006413241232
             1.84,    0.05699103201,    0.02315386056
             1.85,     0.1296363274,    0.04991403719
             1.86,     0.2029097041,    0.07370857329
             1.87,     0.2768095666,     0.0943775989
             1.88,     0.3513401973,     0.1117599114
             1.89,     0.4265132622,      0.125692712
              1.9,     0.5023495332,     0.1360111361
             1.91,     0.5788806124,     0.1425474694
             1.92,     0.6561504429,     0.1451299796
             1.93,      0.734216491,     0.1435813579
             1.94,     0.8131506364,     0.1377168181
             1.95,      0.893039887,     0.1273419064
             1.96,     0.9739870097,     0.1122500549
             1.97,      1.056111076,    0.09221988322
             1.98,      1.139547767,    0.06701224599
             1.99,      1.224449146,    0.03636705798
                2,      1.310982666, -4.948642679e-15
              nan,      -2.36946304,     -1.657912586
