             Time,          Y-Force,   Work integrand
                0,  1.204449203e-05,                0
            0.005,   0.001027760517, -6.528570971e-07
             0.01,   0.003988385539,  -9.96388322e-06
            0.015,   0.008791510511, -4.833860129e-05
             0.02,     0.0153395571, -0.0001464580788
            0.025,     0.0235422728, -0.0003426952149
             0.03,     0.0333160142, -0.0006807846686
            0.035,    0.04458222427,  -0.001207743344
             0.04,    0.05726777243,  -0.001972047959
            0.045,    0.07130356099,  -0.003022037422
             0.05,     0.0866230494,  -0.004404531246
            0.055,     0.1031632985,  -0.006163684604
             0.06,     0.1208642088,  -0.008340022834
            0.065,     0.1396680249,   -0.01096966157
             0.07,     0.1595196679,   -0.01408372041
            0.075,     0.1803668312,   -0.01770789687
             0.08,     0.2021602549,   -0.02186220813
            0.085,     0.2248537323,   -0.02656087651
             0.09,     0.2484042527,   -0.03181235164
            0.095,     0.2727722318,   -0.03761946494
              0.1,     0.2979215902,   -0.04397969342
            0.105,      0.323819782,   -0.05088552137
             0.11,     0.3504378298,   -0.05832489013
            0.115,     0.3777503462,   -0.06628172492
             0.12,     0.4057354853,   -0.07473652221
            0.125,     0.4343748544,   -0.08366697969
             0.13,     0.4636534487,   -0.09304866705
            0.135,     0.4935595647,     -0.102855732
             0.14,     0.5240846582,     -0.113061622
            0.145,     0.5552231853,    -0.1236398028
             0.15,     0.5869724645,    -0.1345644749
            0.155,     0.6193325274,    -0.1458112883
             0.16,     0.6523059139,    -0.1573580409
            0.165,     0.6858974019,    -0.1691853213
             0.17,      0.720113634,    -0.1812770523
            0.175,     0.7549624645,    -0.1936208545
             0.18,     0.7904517807,    -0.2062080989
            0.185,     0.8265877724,    -0.2190335317
             0.19,     0.8633730332,    -0.2320945366
            0.195,     0.9008051723,    -0.2453903455
              0.2,     0.9388765004,    -0.2589216032
            0.205,     0.9775748237,    -0.2726904721
             0.21,      1.016884785,    -0.2867011012
            0.215,      1.056788995,    -0.3009600568
             0.22,      1.097268541,    -0.3154764256
            0.225,      1.138303028,    -0.3302615745
             0.23,      1.179870555,    -0.3453287285
            0.235,      1.221947928,    -0.3606924997
             0.24,      1.264511094,    -0.3763684051
            0.245,      1.307535672,    -0.3923723615
             0.25,      1.350997455,    -0.4087201524
            0.255,      1.394872812,    -0.4254268678
             0.26,      1.439138993,    -0.4425063431
            0.265,       1.48377432,    -0.4599706308
             0.27,      1.528758239,    -0.4778295317
            0.275,      1.574071224,     -0.496090192
             0.28,      1.619694567,    -0.5147567588
            0.285,      1.665610092,    -0.5338300818
             0.29,      1.711799813,    -0.5533074532
            0.295,      1.758245551,    -0.5731823756
              0.3,      1.804928509,    -0.5934443628
            0.305,      1.851828813,    -0.6140787801
             0.31,      1.898925095,    -0.6350667269
            0.315,      1.946194147,    -0.6563849715
             0.32,      1.993610686,    -0.6780059558
            0.325,      2.041147215,    -0.6998978819
             0.33,      2.088773906,    -0.7220248647
            0.335,      2.136458462,    -0.7443471117
             0.34,      2.184165947,    -0.7668211024
            0.345,      2.231858653,    -0.7893997844
             0.35,      2.279496067,    -0.8120328322
            0.355,      2.327034919,    -0.8346669948
             0.36,      2.374429241,    -0.8572465052
            0.365,      2.421630389,    -0.8797134964
             0.37,      2.468587065,    -0.9020083843
            0.375,      2.515245386,    -0.9240702166
             0.38,      2.561549018,    -0.9458370152
            0.385,      2.607439322,    -0.9672461414
             0.39,      2.652855487,    -0.9882346984
            0.395,      2.697734629,     -1.008739955
              0.4,      2.742011899,     -1.028699763
            0.405,      2.785620649,     -1.048052925
             0.41,       2.82849268,     -1.066739512
            0.415,      2.870558526,     -1.084701093
             0.42,      2.911747748,     -1.101880964
            0.425,      2.951989246,     -1.118224434
             0.43,      2.991211581,     -1.133679136
            0.435,      3.029343279,     -1.148195258
             0.44,      3.066313092,     -1.161725622
            0.445,      3.102050239,     -1.174225674
             0.45,      3.136484648,     -1.185653452
            0.455,      3.169547236,     -1.195969645
             0.46,      3.201170238,      -1.20513775
            0.465,      3.231287604,     -1.213124245
             0.47,      3.259835413,     -1.219898662
            0.475,      3.286752311,     -1.225433567
             0.48,      3.311979906,     -1.229704522
            0.485,      3.335463037,     -1.232690034
             0.49,      3.357149897,     -1.234371496
            0.495,      3.376992116,     -1.234733125
              0.5,      3.394944972,     -1.233761945
            0.505,      3.410967791,     -1.231447844
             0.51,      3.425024402,      -1.22778366
            0.515,      3.437083481,     -1.222765222
             0.52,      3.447118668,     -1.216391267
            0.525,      3.455108542,     -1.208663266
             0.53,      3.461036622,     -1.199585239
            0.535,      3.464891463,     -1.189163623
             0.54,      3.466666857,     -1.177407199
            0.545,       3.46636201,     -1.164327052
             0.55,      3.463981644,     -1.149936511
            0.555,      3.459535998,      -1.13425107
             0.56,      3.453040741,     -1.117288268
            0.565,      3.444516842,     -1.099067517
             0.57,      3.433990442,     -1.079609937
            0.575,      3.421492769,     -1.058938276
             0.58,      3.407060125,     -1.037076951
            0.585,      3.390733837,     -1.014052093
             0.59,      3.372560104,    -0.9898914464
            0.595,      3.352589727,    -0.9646241371
              0.6,      3.330877764,    -0.9382803723
            0.605,      3.307483207,    -0.9108912203
             0.61,      3.282468711,    -0.8824885494
            0.615,      3.255900385,    -0.8531050977
             0.62,      3.227847571,     -0.822774574
            0.625,      3.198382598,    -0.7915317778
             0.63,      3.167580544,    -0.7594127858
            0.635,       3.13551899,    -0.7264551648
             0.64,      3.102277715,    -0.6926980171
            0.645,      3.067938272,    -0.6581816535
             0.65,      3.032583426,    -0.6229469038
            0.655,      2.996296588,    -0.5870344172
             0.66,      2.959161376,    -0.5504843975
            0.665,       2.92126139,    -0.5133369181
             0.67,      2.882680123,    -0.4756326137
            0.675,      2.843500931,    -0.4374134552
             0.68,      2.803806957,    -0.3987233725
            0.685,      2.763680923,    -0.3596085048
             0.69,      2.723204739,    -0.3201169391
            0.695,      2.682458944,    -0.2802979795
              0.7,      2.641522107,    -0.2402011846
            0.705,      2.600470342,    -0.1998755486
             0.71,      2.559377059,    -0.1593692487
            0.715,      2.518312989,    -0.1187301899
             0.72,      2.477346323,   -0.07800708492
            0.725,      2.436542747,   -0.03725035518
             0.73,      2.395965235,   0.003487799861
            0.735,       2.35567365,    0.04415415817
             0.74,      2.315724401,    0.08469527649
            0.745,      2.276170368,      0.125057472
             0.75,      2.237061067,     0.1651859934
            0.755,      2.198442785,     0.2050243863
             0.76,      2.160358451,     0.2445149371
            0.765,      2.122847313,     0.2835998195
             0.77,      2.085944691,     0.3222216523
            0.775,      2.049681982,     0.3603228294
             0.78,      2.014086802,      0.397844521
            0.785,      1.979183062,     0.4347268151
             0.79,      1.944990925,     0.4709102734
            0.795,       1.91152683,     0.5063374747
              0.8,      1.878803736,     0.5409528627
            0.805,      1.846831505,     0.5747008119
             0.81,      1.815617191,     0.6075236895
            0.815,      1.785165045,     0.6393618836
             0.82,       1.75547637,      0.670156034
            0.825,      1.726549446,     0.6998496873
             0.83,      1.698379742,      0.728390259
            0.835,      1.670960347,     0.7557278096
             0.84,      1.644282391,     0.7818131253
            0.845,      1.618335338,     0.8065970792
             0.85,      1.593107152,     0.8300319231
            0.855,      1.568584484,     0.8520733507
             0.86,       1.54475296,     0.8726815401
            0.865,      1.521597463,     0.8918203757
             0.87,      1.499102306,     0.9094559817
            0.875,      1.477251266,     0.9255564912
             0.88,      1.456027485,      0.940093725
            0.885,      1.435413553,     0.9530455217
             0.89,      1.415391856,     0.9643964206
            0.895,      1.395945116,     0.9741357236
              0.9,      1.377056822,     0.9822542656
            0.905,      1.358711282,     0.9887425154
             0.91,      1.340893244,     0.9935918197
            0.915,      1.323587283,     0.9967983131
             0.92,      1.306777275,     0.9983669352
            0.925,      1.290446232,     0.9983125848
             0.93,      1.274576564,     0.9966570796
            0.935,      1.259150702,     0.9934234014
             0.94,      1.244151796,     0.9886306941
            0.945,      1.229564169,     0.9822931908
             0.95,      1.215373289,     0.9744238541
            0.955,      1.201565191,     0.9650405765
             0.96,      1.188125491,     0.9541712843
            0.965,      1.175038341,     0.9418550116
             0.97,      1.162285706,     0.9281382577
            0.975,      1.149847204,     0.9130684107
             0.98,       1.13770064,     0.8966875999
            0.985,      1.125823096,     0.8790301195
             0.99,      1.114192228,     0.8601247104
            0.995,      1.102787309,     0.8400003479
                1,      1.091589574,     0.8186921805
            1.005,      1.080581531,     0.7962440571
             1.01,      1.069745489,     0.7727061401
            1.015,       1.05906191,     0.7481288887
             1.02,      1.048508306,      0.722556723
            1.025,      1.038059222,     0.6960247344
             1.03,      1.027687367,     0.6685599415
            1.035,      1.017365352,     0.6401859817
             1.04,      1.007067281,     0.6109283558
            1.045,     0.9967693771,     0.5808172166
             1.05,     0.9864493243,     0.5498861842
            1.055,      0.976084707,     0.5181678503
             1.06,     0.9656513505,     0.4856881954
            1.065,     0.9551224715,     0.4524625447
             1.07,     0.9444689054,     0.4184946429
            1.075,     0.9336600711,     0.3837789139
             1.08,     0.9226651287,     0.3483047103
            1.085,     0.9114535777,     0.3120606065
             1.09,     0.8999951613,     0.2750370425
            1.095,     0.8882595478,     0.2372263513
              1.1,      0.876215879,     0.1986199293
            1.105,     0.8638320531,     0.1592032447
             1.11,     0.8510738654,     0.1189503203
            1.115,     0.8379043112,    0.07781970221
             1.12,     0.8242830312,    0.03575342588
            1.125,     0.8101660941,  -0.007320513356
             1.13,     0.7955064941,   -0.05148297066
            1.135,     0.7802551268,   -0.09681774317
             1.14,     0.7643615886,    -0.1434071777
            1.145,     0.7477744097,    -0.1913305727
             1.15,     0.7304410449,    -0.2406651449
            1.155,     0.7123077859,    -0.2914883895
             1.16,     0.6933192659,    -0.3438806424
            1.165,     0.6734184548,    -0.3979268658
             1.17,     0.6525475334,    -0.4537174433
            1.175,     0.6306480505,    -0.5113485367
             1.18,     0.6076605479,    -0.5709220908
            1.185,     0.5835247282,    -0.6325449333
             1.19,     0.5581797379,     -0.696326388
            1.195,     0.5315640648,    -0.7623742118
              1.2,     0.5036160959,    -0.8307892478
            1.205,     0.4742747187,    -0.9016601501
             1.21,     0.4434798352,    -0.9750592345
            1.215,      0.411173457,     -1.051039751
             1.22,     0.3773009376,     -1.129634655
            1.225,     0.3418122449,     -1.210856619
             1.23,     0.3046631392,     -1.294699007
            1.235,     0.2658158592,     -1.381137612
             1.24,     0.2252390526,     -1.470132929
            1.245,     0.1829073008,     -1.561632288
             1.25,     0.1388004277,      -1.65557081
            1.255,    0.09290296967,      -1.75187045
             1.26,    0.04520388238,     -1.850438303
            1.265,  -0.004303301148,     -1.951166928
             1.27,   -0.05562085458,      -2.05393846
            1.275,    -0.1087483482,     -2.158630369
             1.28,    -0.1636832375,     -2.265117845
            1.285,    -0.2204200107,     -2.373270347
             1.29,    -0.2789485838,     -2.482945327
            1.295,    -0.3392522843,     -2.593984835
              1.3,    -0.4013073335,     -2.706218345
            1.305,    -0.4650849188,      -2.81946938
             1.31,    -0.5305530891,     -2.933559642
            1.315,    -0.5976764403,      -3.04830635
             1.32,    -0.6664136407,     -3.163513851
            1.325,    -0.7367138572,     -3.278965255
             1.33,    -0.8085149081,     -3.394421046
            1.335,    -0.8817447358,     -3.509627482
             1.34,    -0.9563255209,     -3.624330939
            1.345,     -1.032178343,     -3.738290258
             1.35,     -1.109225147,     -3.851280058
            1.355,     -1.187386263,     -3.963083447
             1.36,      -1.26657508,     -4.073478226
            1.365,     -1.346692365,     -4.182223448
             1.37,     -1.427623151,      -4.28905391
            1.375,     -1.509239004,     -4.393688538
             1.38,      -1.59140548,     -4.495852163
            1.385,     -1.673992341,      -4.59530109
             1.39,     -1.756879789,     -4.691836464
            1.395,     -1.839955732,     -4.785294826
              1.4,     -1.923105504,       -4.8755208
            1.405,     -2.006201191,      -4.96234117
             1.41,     -2.089099591,     -5.045559873
            1.415,     -2.171650155,     -5.124975534
             1.42,     -2.253704589,     -5.200402447
            1.425,     -2.335118868,     -5.271673584
             1.43,     -2.415746412,     -5.338624271
            1.435,      -2.49543084,     -5.401077754
             1.44,     -2.574008574,     -5.458854856
            1.445,     -2.651322446,     -5.511807161
             1.45,     -2.727236218,     -5.559848527
            1.455,     -2.801637452,     -5.602956539
             1.46,      -2.87442509,     -5.641137785
            1.465,     -2.945490545,     -5.674380034
             1.47,      -3.01470591,     -5.702624353
            1.475,     -3.081925586,     -5.725770808
             1.48,      -3.14699566,     -5.743702331
            1.485,     -3.209761342,     -5.756303241
             1.49,     -3.270070705,     -5.763467791
            1.495,     -3.327781051,     -5.765114076
              1.5,     -3.382772293,      -5.76121394
            1.505,     -3.434961471,     -5.751824112
             1.51,     -3.484304719,     -5.737086892
            1.515,     -3.530779419,     -5.717185252
             1.52,     -3.574355835,     -5.692275931
            1.525,     -3.614977438,     -5.662446089
             1.53,     -3.652561673,     -5.627718967
            1.535,     -3.687015273,     -5.588091328
             1.54,     -3.718247224,     -5.543564091
            1.545,     -3.746171524,     -5.494150061
             1.55,     -3.770709643,     -5.439879999
            1.555,     -3.791803053,     -5.380830241
             1.56,     -3.809430986,     -5.317157421
            1.565,     -3.823612258,     -5.249093653
             1.57,     -3.834377768,     -5.176880341
            1.575,     -3.841732708,     -5.100687705
             1.58,     -3.845644396,      -5.02059746
            1.585,     -3.846069354,     -4.936669473
             1.59,     -3.842990145,     -4.849022706
            1.595,      -3.83642201,     -4.757845105
              1.6,     -3.826386133,     -4.663332351
            1.605,     -3.812888069,     -4.565642434
             1.61,     -3.795934699,     -4.464930648
            1.615,     -3.775569101,     -4.361417562
             1.62,     -3.751872941,     -4.255388663
            1.625,     -3.724920751,     -4.147103831
             1.63,     -3.694731978,     -4.036713181
            1.635,     -3.661277302,     -3.924281818
             1.64,     -3.624539506,     -3.809908796
            1.645,     -3.584571357,     -3.693823129
             1.65,     -3.541493263,     -3.576361405
            1.655,     -3.495431218,     -3.457847522
             1.66,     -3.446449441,     -3.338482261
            1.665,     -3.394534226,     -3.218334666
             1.67,     -3.339642388,     -3.097439934
            1.675,     -3.281778978,     -2.975928999
             1.68,     -3.221048151,     -2.854095379
            1.685,     -3.157638967,     -2.732348899
             1.69,     -3.091751203,     -2.611082714
            1.695,     -3.023509053,     -2.490542081
              1.7,     -2.952923004,      -2.37078696
            1.705,     -2.879931759,     -2.251780016
             1.71,     -2.804502645,     -2.133545691
            1.715,     -2.726725292,     -2.016292928
             1.72,     -2.646829279,     -1.900411612
            1.725,      -2.56510372,     -1.786337114
             1.73,     -2.481767318,     -1.674373578
            1.735,     -2.396881989,     -1.564603949
             1.74,      -2.31037839,     -1.456956114
            1.745,     -2.222182009,     -1.351380986
             1.75,     -2.132352808,     -1.248014994
            1.755,     -2.041137371,     -1.147208142
             1.76,     -1.948891752,     -1.049393765
            1.765,     -1.855921152,     -0.954887561
             1.77,     -1.762343751,    -0.8637551404
            1.775,     -1.668076147,    -0.7758415102
             1.78,     -1.572958583,    -0.6909445078
            1.785,     -1.476941201,    -0.6090156316
             1.79,     -1.380205568,    -0.5302531024
            1.795,     -1.283136246,    -0.4550259911
              1.8,     -1.186158391,    -0.3836830819
            1.805,     -1.089549348,    -0.3163759965
             1.81,    -0.9933467758,    -0.2530088106
            1.815,    -0.8974062239,    -0.1933342324
             1.82,    -0.8015635443,    -0.1371219776
            1.825,    -0.7057964405,   -0.08428967718
             1.83,    -0.6102874247,   -0.03492306642
            1.835,     -0.515357451,    0.01081146311
             1.84,    -0.4213225323,    0.05279310407
