             Time,          Y-Force,   Work integrand
                0,   -0.00253960112,                0
            0.005,  -0.008634247785, -3.229748312e-07
             0.01,   -0.02197526629, -3.279808495e-06
            0.015,   -0.03654602352, -1.224177582e-05
             0.02,   -0.04969772086, -2.952044619e-05
            0.025,   -0.06169035017,  -5.71117695e-05
             0.03,   -0.07335628949, -9.754552594e-05
            0.035,    -0.0850864908, -0.0001536103644
             0.04,   -0.09689504311, -0.0002278971414
            0.045,    -0.1086888917,  -0.000322714302
             0.05,    -0.1204172434,  -0.000440275546
            0.055,    -0.1320762373,  -0.000582815289
             0.06,    -0.1436778174, -0.0007525844073
            0.065,    -0.1552281635, -0.0009517863357
             0.07,    -0.1667279067,   -0.00118255936
            0.075,    -0.1781783148,  -0.001447002799
             0.08,    -0.1895802786,  -0.001747171848
            0.085,    -0.2009315257,  -0.002085047605
             0.09,    -0.2122291953,  -0.002462548411
            0.095,     -0.223475103,  -0.002881592732
              0.1,    -0.2346741483,  -0.003344106613
            0.105,    -0.2458273368,  -0.003851937679
             0.11,    -0.2569309735,  -0.004406815825
            0.115,    -0.2679825148,  -0.005010427208
             0.12,    -0.2789836259,  -0.005664483539
            0.125,    -0.2899377672,  -0.006370702892
             0.13,    -0.3008473109,  -0.007130758176
            0.135,    -0.3117130534,  -0.007946257343
             0.14,    -0.3225345359,  -0.008818739279
            0.145,    -0.3333097917,  -0.009749655134
             0.15,    -0.3440359784,    -0.0107403732
            0.155,    -0.3547122277,   -0.01179226391
             0.16,    -0.3653421094,   -0.01290680604
            0.165,    -0.3759319038,   -0.01408556929
             0.17,    -0.3864858187,   -0.01533005662
            0.175,    -0.3970033706,   -0.01664157488
             0.18,    -0.4074813985,   -0.01802127233
            0.185,    -0.4179179244,   -0.01947028676
             0.19,    -0.4283139648,   -0.02098984708
            0.195,    -0.4386723371,   -0.02258124802
              0.2,    -0.4489953004,   -0.02424574622
            0.205,    -0.4592832064,   -0.02598447845
             0.21,    -0.4695349099,   -0.02779846219
            0.215,    -0.4797491275,   -0.02968866007
             0.22,    -0.4899254672,   -0.03165604414
            0.225,    -0.5000645592,   -0.03370161656
             0.23,    -0.5101676285,   -0.03582639417
            0.235,    -0.5202361233,   -0.03803139033
             0.24,    -0.5302716308,   -0.04031761263
            0.245,     -0.540275895,   -0.04268606726
             0.25,    -0.5502506936,   -0.04513775221
            0.255,    -0.5601975645,   -0.04767363553
             0.26,    -0.5701175732,   -0.05029463207
            0.265,    -0.5800112846,   -0.05300159432
             0.27,    -0.5898789315,    -0.0557953209
            0.275,    -0.5997206593,    -0.0586765756
             0.28,    -0.6095367559,   -0.06164610934
            0.285,    -0.6193278078,   -0.06470467915
             0.29,    -0.6290947319,   -0.06785305687
            0.295,     -0.638838673,   -0.07109202379
              0.3,    -0.6485608275,   -0.07442235496
            0.305,    -0.6582623014,   -0.07784480381
             0.31,    -0.6679440631,    -0.0813600955
            0.315,    -0.6776069857,    -0.0849689303
             0.32,    -0.6872519102,   -0.08867199046
            0.325,    -0.6968796971,   -0.09246994699
             0.33,    -0.7064912478,   -0.09636346335
            0.335,    -0.7160874889,    -0.1003531944
             0.34,    -0.7256693491,    -0.1044397841
            0.345,    -0.7352377324,    -0.1086238618
             0.35,    -0.7447935024,      -0.11290604
            0.355,    -0.7543374974,    -0.1172869164
             0.36,    -0.7638705584,     -0.121767078
            0.365,    -0.7733935717,    -0.1263471085
             0.37,    -0.7829075128,    -0.1310275971
            0.375,    -0.7924134472,    -0.1358091406
             0.38,    -0.8019125162,    -0.1406923433
            0.385,       -0.8114059,    -0.1456778121
             0.39,    -0.8208947745,      -0.15076615
            0.395,    -0.8303802918,    -0.1559579523
              0.4,    -0.8398635648,    -0.1612538044
            0.405,    -0.8493456628,    -0.1666542796
             0.41,    -0.8588276346,    -0.1721599435
            0.415,    -0.8683105342,    -0.1777713593
             0.42,    -0.8777954464,    -0.1834890933
            0.425,    -0.8872834905,    -0.1893137169
             0.43,    -0.8967758246,    -0.1952458083
            0.435,    -0.9062736418,    -0.2012859531
             0.44,    -0.9157781518,    -0.2074347407
            0.445,    -0.9252905925,    -0.2136927684
             0.45,    -0.9348122494,    -0.2200606461
            0.455,    -0.9443444557,    -0.2265389981
             0.46,    -0.9538885827,    -0.2331284618
            0.465,    -0.9634460153,    -0.2398296833
             0.47,    -0.9730181412,    -0.2466433142
            0.475,    -0.9826063325,    -0.2535700084
             0.48,    -0.9922119364,    -0.2606104184
            0.485,     -1.001836268,    -0.2677651937
             0.49,     -1.011480609,    -0.2750349798
            0.495,      -1.02114621,    -0.2824204177
              0.5,      -1.03083429,    -0.2899221441
            0.505,     -1.040546051,    -0.2975407942
             0.51,     -1.050282685,    -0.3052770032
            0.515,     -1.060045384,    -0.3131314106
             0.52,     -1.069835358,    -0.3211046637
            0.525,     -1.079653824,    -0.3291974162
             0.53,        -1.089502,    -0.3374103259
            0.535,      -1.09938109,    -0.3457440498
             0.54,      -1.10929227,    -0.3541992404
            0.545,     -1.119236678,    -0.3627765407
             0.55,     -1.129215408,    -0.3714765813
            0.555,     -1.139229509,    -0.3802999799
             0.56,      -1.14927999,    -0.3892473413
            0.565,     -1.159367825,    -0.3983192573
             0.57,     -1.169493944,    -0.4075163045
            0.575,     -1.179659244,     -0.416839045
             0.58,     -1.189864573,     -0.426288021
            0.585,     -1.200110727,    -0.4358637521
             0.59,     -1.210398452,    -0.4455667338
            0.595,     -1.220728445,    -0.4553974386
              0.6,     -1.231101359,    -0.4653563136
            0.605,     -1.241517792,    -0.4754437776
             0.61,     -1.251978285,    -0.4856602176
            0.615,      -1.26248333,    -0.4960059894
             0.62,      -1.27303337,    -0.5064814185
            0.625,     -1.283628805,     -0.517086799
             0.63,     -1.294269992,    -0.5278223933
            0.635,     -1.304957249,     -0.538688432
             0.64,     -1.315690847,    -0.5496851105
            0.645,     -1.326471014,    -0.5608125864
             0.65,     -1.337297929,    -0.5720709798
            0.655,      -1.34817174,    -0.5834603754
             0.66,      -1.35909255,    -0.5949808185
            0.665,     -1.370060414,    -0.6066323104
             0.67,      -1.38107533,    -0.6184148037
            0.675,      -1.39213724,    -0.6303282015
             0.68,     -1.403246053,    -0.6423723652
            0.685,      -1.41440162,    -0.6545471019
             0.69,     -1.425603707,    -0.6668521511
            0.695,     -1.436852035,    -0.6792872008
              0.7,     -1.448146292,    -0.6918518909
            0.705,     -1.459486095,    -0.7045457955
             0.71,     -1.470870978,     -0.717368413
            0.715,     -1.482300402,    -0.7303191708
             0.72,     -1.493773803,    -0.7433974459
            0.725,     -1.505290581,    -0.7566025584
             0.73,     -1.516850045,     -0.769933743
            0.735,     -1.528451417,    -0.7833901487
             0.74,     -1.540093857,    -0.7969708495
            0.745,     -1.551776466,    -0.8106748423
             0.75,     -1.563498266,    -0.8245010385
            0.755,     -1.575258209,    -0.8384482632
             0.76,     -1.587055181,    -0.8525152576
            0.765,     -1.598887997,    -0.8667006724
             0.77,     -1.610755395,    -0.8810030663
            0.775,      -1.62265604,    -0.8954209018
             0.78,     -1.634588529,      -0.90995255
            0.785,     -1.646551391,    -0.9245962866
             0.79,     -1.658543061,    -0.9393502775
            0.795,     -1.670561906,     -0.954212588
              0.8,     -1.682606219,    -0.9691811821
            0.805,     -1.694674213,    -0.9842539137
             0.81,     -1.706764019,    -0.9994285265
            0.815,     -1.718873693,     -1.014702654
             0.82,     -1.731001206,     -1.030073812
            0.825,     -1.743144451,     -1.045539404
             0.83,     -1.755301241,     -1.061096715
            0.835,     -1.767469306,     -1.076742909
             0.84,     -1.779646284,     -1.092475024
            0.845,     -1.791829721,     -1.108289966
             0.85,     -1.804017075,     -1.124184515
            0.855,     -1.816205716,     -1.140155319
             0.86,     -1.828392914,     -1.156198886
            0.865,     -1.840575837,     -1.172311583
             0.87,     -1.852751554,     -1.188489635
            0.875,     -1.864917025,     -1.204729113
             0.88,     -1.877069094,     -1.221025937
            0.885,     -1.889204507,     -1.237375877
             0.89,     -1.901319904,      -1.25377455
            0.895,     -1.913411787,     -1.270217398
              0.9,      -1.92547655,     -1.286699705
            0.905,     -1.937510492,     -1.303216602
             0.91,     -1.949509813,      -1.31976307
            0.915,     -1.961470611,     -1.336333929
             0.92,     -1.973388869,     -1.352923834
            0.925,     -1.985260499,     -1.369527303
             0.93,     -1.997081328,     -1.386138702
            0.935,     -2.008847111,     -1.402752262
             0.94,     -2.020553546,     -1.419362085
            0.945,     -2.032196244,     -1.435962123
             0.95,     -2.043770718,      -1.45254617
            0.955,     -2.055272422,     -1.469107892
             0.96,     -2.066696756,      -1.48564083
            0.965,     -2.078039092,     -1.502138416
             0.97,     -2.089294727,     -1.518593948
            0.975,     -2.100458862,     -1.535000568
             0.98,     -2.111526655,     -1.551351303
            0.985,     -2.122493245,     -1.567639087
             0.99,      -2.13335348,     -1.583856557
            0.995,     -2.144102188,     -1.599996257
                1,     -2.154734077,     -1.616050558
            1.005,     -2.165243715,     -1.632011649
             1.01,     -2.175625533,     -1.647871538
            1.015,     -2.185873818,     -1.663622045
             1.02,     -2.195982691,     -1.679254788
            1.025,     -2.205946107,     -1.694761182
             1.03,     -2.215757828,     -1.710132416
            1.035,     -2.225411432,     -1.725359466
             1.04,     -2.234900296,     -1.740433075
            1.045,     -2.244217633,     -1.755343786
             1.05,     -2.253356445,     -1.770081905
            1.055,     -2.262309583,     -1.784637548
             1.06,     -2.271069685,     -1.799000598
            1.065,     -2.279629287,     -1.813160785
             1.07,     -2.287980786,     -1.827107669
            1.075,     -2.296116489,     -1.840830672
             1.08,     -2.304028632,     -1.854319108
            1.085,      -2.31170944,     -1.867562222
             1.09,     -2.319151146,     -1.880549222
            1.095,     -2.326346102,     -1.893269368
              1.1,      -2.33328681,     -1.905712002
            1.105,     -2.339965982,     -1.917866612
             1.11,      -2.34637659,     -1.929722873
            1.115,      -2.35251193,     -1.941270716
             1.12,     -2.358365646,     -1.952500352
            1.125,     -2.363931848,      -1.96340238
             1.13,     -2.369205095,     -1.973967786
            1.135,     -2.374180297,     -1.984187871
             1.14,     -2.378852855,     -1.994054375
            1.145,     -2.383218583,     -2.003559425
             1.15,     -2.387273697,     -2.012695534
            1.155,     -2.391014808,       -2.0214556
             1.16,     -2.394438745,     -2.029832769
            1.165,     -2.397542736,     -2.037820593
             1.17,     -2.400324221,     -2.045412882
            1.175,     -2.402780805,      -2.05260366
             1.18,     -2.404910256,      -2.05938718
            1.185,     -2.406710924,      -2.06575828
             1.19,     -2.408181549,      -2.07171223
            1.195,     -2.409321155,     -2.077244646
              1.2,     -2.410128975,     -2.082351434
            1.205,     -2.410604891,     -2.087029171
             1.21,     -2.410749233,     -2.091274936
            1.215,     -2.410562817,     -2.095086359
             1.22,     -2.410046792,     -2.098461483
            1.225,     -2.409202529,     -2.101398673
             1.23,     -2.408031542,     -2.103896556
            1.235,     -2.406535369,     -2.105953912
             1.24,     -2.404715361,     -2.107569493
            1.245,     -2.402572449,     -2.108741818
             1.25,     -2.400106876,     -2.109468934
            1.255,     -2.397317948,     -2.109748198
             1.26,     -2.394203803,     -2.109576067
            1.265,     -2.390761269,     -2.108947968
             1.27,     -2.386985705,     -2.107858161
            1.275,     -2.382871072,      -2.10629979
             1.28,     -2.378409793,     -2.104264767
            1.285,     -2.373593097,     -2.101744071
             1.29,     -2.368410926,     -2.098727671
            1.295,     -2.362852142,     -2.095204718
              1.3,      -2.35690475,      -2.09116374
            1.305,     -2.350556254,     -2.086592974
             1.31,     -2.343794007,     -2.081480684
            1.315,     -2.336605562,     -2.075815482
             1.32,     -2.328978874,     -2.069586523
            1.325,     -2.320902943,     -2.062784085
             1.33,     -2.312367241,     -2.055399073
            1.335,     -2.303363328,     -2.047424464
             1.34,     -2.293884029,      -2.03885459
            1.345,     -2.283923974,     -2.029685623
             1.35,     -2.273479656,     -2.019915628
            1.355,     -2.262549474,     -2.009544616
             1.36,     -2.251133853,     -1.998574644
            1.365,     -2.239235291,     -1.987009857
             1.37,     -2.226858275,     -1.974856415
            1.375,     -2.214009125,     -1.962122345
             1.38,     -2.200695867,     -1.948817422
            1.385,     -2.186928032,     -1.934952986
             1.39,     -2.172716427,     -1.920541724
            1.395,     -2.158072788,     -1.905597357
              1.4,     -2.143009549,     -1.890134423
            1.405,     -2.127539495,     -1.874167958
             1.41,     -2.111675613,     -1.857713361
            1.415,      -2.09543058,     -1.840785933
             1.42,      -2.07881656,     -1.823400684
            1.425,     -2.061844899,     -1.805572075
             1.43,     -2.044525943,     -1.787313846
            1.435,     -2.026868811,     -1.768638821
             1.44,     -2.008881391,      -1.74955891
            1.445,     -1.990570179,     -1.730084974
             1.45,     -1.971940212,     -1.710226772
            1.455,      -1.95299509,     -1.689992992
             1.46,     -1.933737093,     -1.669391365
            1.465,     -1.914167107,     -1.648428611
             1.47,      -1.89428482,     -1.627110627
            1.475,     -1.874088777,     -1.605442544
             1.48,     -1.853576467,     -1.583428818
            1.485,     -1.832744751,     -1.561073617
             1.49,      -1.81158984,     -1.538380806
            1.495,     -1.790107343,     -1.515354004
              1.5,     -1.768292671,     -1.491996942
            1.505,     -1.746141171,     -1.468313577
             1.51,     -1.723648241,     -1.444308205
            1.515,     -1.700809485,     -1.419985589
             1.52,      -1.67762086,     -1.395351085
            1.525,     -1.654078819,     -1.370410762
             1.53,     -1.630180364,     -1.345171448
            1.535,     -1.605923325,     -1.319640945
             1.54,     -1.581306031,     -1.293827757
            1.545,      -1.55632761,     -1.267741332
             1.55,      -1.53098809,     -1.241392124
            1.555,     -1.505288275,     -1.214791487
             1.56,     -1.479229805,     -1.187951706
            1.565,     -1.452815092,     -1.160885928
             1.57,     -1.426047265,     -1.133608109
            1.575,     -1.398930133,     -1.106132963
             1.58,     -1.371468132,     -1.078475909
            1.585,     -1.343666253,     -1.050652996
             1.59,     -1.315530064,     -1.022680903
            1.595,     -1.287065537,    -0.9945767968
              1.6,     -1.258278931,    -0.9663582192
            1.605,     -1.229177117,    -0.9380433284
             1.61,     -1.199766831,     -0.909650314
            1.615,     -1.170055106,    -0.8811977154
             1.62,      -1.14004919,    -0.8527043517
            1.625,     -1.109756383,    -0.8241891885
             1.63,     -1.079184064,    -0.7956713484
            1.635,     -1.048339701,     -0.767170112
             1.64,     -1.017230771,    -0.7387048479
            1.645,    -0.9858648031,    -0.7102950415
             1.65,    -0.9542494334,    -0.6819603217
            1.655,    -0.9223923635,    -0.6537204236
             1.66,     -0.890301324,    -0.6255951537
            1.665,    -0.8579837286,    -0.5976041405
             1.67,    -0.8254474738,    -0.5697673888
            1.675,    -0.7927004964,    -0.5421049555
             1.68,    -0.7597505747,    -0.5146368053
            1.685,     -0.726605458,    -0.4873828951
             1.69,    -0.6932732548,    -0.4603634252
            1.695,    -0.6597617414,    -0.4335983648
              1.7,    -0.6260786127,    -0.4071076179
            1.705,    -0.5922316528,    -0.3809111288
             1.71,    -0.5582285445,    -0.3550287489
            1.715,    -0.5240764911,     -0.329479995
             1.72,    -0.4897825614,    -0.3042842732
            1.725,    -0.4553536884,    -0.2794608752
             1.73,    -0.4207963808,    -0.2550288013
            1.735,    -0.3861163751,    -0.2310065616
             1.74,    -0.3513192095,    -0.2074125376
            1.745,    -0.3164100199,    -0.1842648655
             1.75,    -0.2813927413,    -0.1615809881
            1.755,    -0.2462710807,    -0.1393782495
             1.76,    -0.2110484358,    -0.1176738543
            1.765,    -0.1757269714,   -0.09648437088
             1.77,    -0.1403083382,   -0.07582616877
            1.775,    -0.1047934874,   -0.05571534056
             1.78,     -0.069182655,   -0.03616772348
            1.785,   -0.03347527066,   -0.01719888376
             1.79,   0.002329446586,   0.001175545319
            1.795,    0.03823308134,    0.01894014637
              1.8,    0.07423760416,    0.03607947562
            1.805,     0.1103455225,    0.05257811388
             1.81,     0.1465606591,    0.06842100098
            1.815,      0.182887043,    0.08359286085
             1.82,     0.2193286522,     0.0980780707
            1.825,     0.2558904039,     0.1118610907
             1.83,     0.2925768586,     0.1249258568
            1.835,     0.3293934732,     0.1372563148
             1.84,     0.3663460693,     0.1488361503
