             Time,          Y-Force,   Work integrand
                0,  1.204449203e-05,                0
            0.005,  -0.000355493227, -1.329766852e-08
             0.01,  -0.001439357341, -2.148240832e-07
            0.015,  -0.003217453354, -1.077746328e-06
             0.02,  -0.005666840127, -3.366103035e-06
            0.025,   -0.00876470771,  -8.11420206e-06
             0.03,   -0.01248842445, -1.660648241e-05
            0.035,   -0.01681540781, -3.035759139e-05
             0.04,    -0.0217234988, -5.109366918e-05
            0.045,   -0.02719056351, -8.073303158e-05
             0.05,   -0.03319452139, -0.0001213674688
            0.055,   -0.03971370064, -0.0001752453915
             0.06,   -0.04672655528, -0.0002447536965
            0.065,   -0.05421556417,  -0.000332424426
             0.07,    -0.0621537806, -0.0004408412274
            0.075,   -0.07051698067,  -0.000572675011
             0.08,   -0.07929507109, -0.0007307833752
            0.085,    -0.0884654182,  -0.000917997351
             0.09,   -0.09800800968,  -0.001137211438
            0.095,    -0.1079023624,   -0.00139134364
              0.1,    -0.1181280522,  -0.001683324744
            0.105,    -0.1286560923,  -0.002015948496
             0.11,     -0.139480418,  -0.002392333259
            0.115,    -0.1505779786,  -0.002815332937
             0.12,    -0.1619394549,  -0.003288018693
            0.125,    -0.1735184645,  -0.003812661573
             0.13,    -0.1853247981,  -0.004392614695
            0.135,    -0.1973312228,  -0.005030410698
             0.14,    -0.2095200972,  -0.005728698498
            0.145,    -0.2218740273,  -0.006490044105
             0.15,    -0.2343758829,  -0.007316922093
            0.155,    -0.2470088255,  -0.008211708057
             0.16,    -0.2597563179,    -0.0091766712
            0.165,    -0.2726021225,   -0.01021396707
             0.17,    -0.2855303241,   -0.01132563169
            0.175,    -0.2985253956,    -0.0125135782
             0.18,    -0.3115723056,   -0.01377959679
            0.185,    -0.3246566702,   -0.01512535859
             0.19,    -0.3377649348,   -0.01655242395
            0.195,    -0.3508845261,   -0.01806225248
              0.2,    -0.3640038883,   -0.01965620997
            0.205,    -0.3771123685,   -0.02133556828
             0.21,    -0.3902000141,   -0.02310149919
            0.215,    -0.4032573931,    -0.0249550671
             0.22,    -0.4162755141,   -0.02689722607
            0.225,    -0.4292458361,   -0.02892882191
             0.23,    -0.4421603048,   -0.03105059687
            0.235,    -0.4550113764,   -0.03326319432
             0.24,      -0.46779203,   -0.03556716363
            0.245,    -0.4804957882,   -0.03796296619
             0.25,    -0.4931167408,   -0.04045098264
            0.255,    -0.5056495561,    -0.0430315199
             0.26,    -0.5180894782,   -0.04570481759
            0.265,    -0.5304323224,    -0.0484710548
             0.27,    -0.5426744753,    -0.0513303576
            0.275,     -0.554812891,   -0.05428280656
             0.28,    -0.5668450725,   -0.05732844325
            0.285,     -0.578769037,   -0.06046727496
             0.29,    -0.5905832756,   -0.06369927858
            0.295,     -0.602286717,   -0.06702440448
              0.3,    -0.6138787031,   -0.07044258118
            0.305,    -0.6253589705,   -0.07395372068
             0.31,    -0.6367268273,   -0.07755762548
            0.315,    -0.6479852176,    -0.0812544911
             0.32,    -0.6591322592,   -0.08504388061
            0.325,    -0.6701703032,   -0.08892583996
             0.33,    -0.6811004794,   -0.09290023236
            0.335,    -0.6919243655,   -0.09696695089
             0.34,    -0.7026437494,    -0.1011258937
            0.345,    -0.7132606415,    -0.1053769711
             0.35,    -0.7237772634,    -0.1097201095
            0.355,    -0.7341960256,     -0.114155253
             0.36,    -0.7445195223,     -0.118682368
            0.365,     -0.754743522,    -0.1233003029
             0.37,     -0.764883578,    -0.1280111068
            0.375,    -0.7749372615,    -0.1328139545
             0.38,    -0.7849075355,    -0.1377088875
            0.385,     -0.794797729,    -0.1426960221
             0.39,     -0.804611267,    -0.1477755087
            0.395,    -0.8143516573,    -0.1529475329
              0.4,    -0.8240225006,    -0.1582123201
            0.405,    -0.8336274977,    -0.1635701413
             0.41,    -0.8431704747,     -0.169021321
            0.415,    -0.8526553696,    -0.1745662388
             0.42,    -0.8620861701,    -0.1802053205
            0.425,    -0.8714668473,    -0.1859390261
             0.43,    -0.8808013304,    -0.1917678455
            0.435,    -0.8900935261,    -0.1976923033
             0.44,    -0.8993473534,    -0.2037129677
            0.445,     -0.908566758,    -0.2098304547
             0.45,    -0.9177556941,    -0.2160454264
            0.455,    -0.9269180899,    -0.2223585834
             0.46,    -0.9360578155,     -0.228770658
            0.465,    -0.9451786627,    -0.2352824089
             0.47,    -0.9542843369,     -0.241894618
            0.475,    -0.9633784558,    -0.2486080895
             0.48,    -0.9724645566,    -0.2554236506
            0.485,    -0.9815461091,    -0.2623421535
             0.49,    -0.9906265252,     -0.269364478
            0.495,    -0.9997091544,     -0.276491529
              0.5,     -1.008797263,    -0.2837242301
            0.505,     -1.017894009,    -0.2910635154
             0.51,     -1.027002431,    -0.2985103238
            0.515,     -1.036125457,    -0.3060655995
             0.52,     -1.045265929,     -0.313730297
            0.525,     -1.054426619,     -0.321505385
             0.53,     -1.063610236,     -0.329391847
            0.535,     -1.072819413,    -0.3373906754
             0.54,     -1.082056684,    -0.3455028632
            0.545,     -1.091324469,    -0.3537293972
             0.55,      -1.10062507,    -0.3620712534
            0.555,     -1.109960677,     -0.370529397
             0.56,     -1.119333387,    -0.3791047861
            0.565,     -1.128745219,    -0.3877983741
             0.57,     -1.138198121,    -0.3966111107
            0.575,     -1.147693959,    -0.4055439367
             0.58,     -1.157234501,    -0.4145977758
            0.585,     -1.166821402,    -0.4237735257
             0.59,     -1.176456185,    -0.4330720511
            0.595,     -1.186140258,    -0.4424941826
              0.6,     -1.195874923,    -0.4520407207
            0.605,       -1.2056614,    -0.4617124413
             0.61,     -1.215500851,    -0.4715101009
            0.615,     -1.225394379,    -0.4814344372
             0.62,     -1.235343019,    -0.4914861615
            0.625,     -1.245347707,    -0.5016659464
             0.63,     -1.255409257,    -0.5119744121
            0.635,     -1.265528339,    -0.5224121153
             0.64,     -1.275705483,    -0.5329795453
            0.645,     -1.285941097,    -0.5436771293
             0.65,       -1.2962355,    -0.5545052423
            0.655,     -1.306588953,    -0.5654642195
             0.66,     -1.317001685,    -0.5765543638
            0.665,     -1.327473897,    -0.5877759466
             0.67,     -1.338005739,    -0.5991291994
            0.675,     -1.348597293,    -0.6106143001
             0.68,     -1.359248537,    -0.6222313582
            0.685,     -1.369959329,    -0.6339804027
             0.69,     -1.380729403,    -0.6458613767
            0.695,     -1.391558379,    -0.6578741394
              0.7,     -1.402445785,    -0.6700184737
            0.705,     -1.413391082,     -0.682294095
             0.71,     -1.424393685,    -0.6947006588
            0.715,     -1.435452967,    -0.7072377633
             0.72,     -1.446568261,    -0.7199049472
            0.725,     -1.457738848,    -0.7327016829
             0.73,     -1.468963944,    -0.7456273685
            0.735,     -1.480242688,    -0.7586813209
             0.74,     -1.491574143,    -0.7718627709
            0.745,     -1.502957292,    -0.7851708621
             0.75,     -1.514391041,    -0.7986046507
            0.755,     -1.525874232,    -0.8121631063
             0.76,     -1.537405639,     -0.825845112
            0.765,     -1.548983969,    -0.8396494625
             0.77,     -1.560607865,    -0.8535748619
            0.775,     -1.572275903,    -0.8676199219
             0.78,     -1.583986593,    -0.8817831607
            0.785,     -1.595738384,    -0.8960630035
             0.79,     -1.607529667,    -0.9104577832
            0.795,     -1.619358779,    -0.9249657409
              0.8,     -1.631224001,    -0.9395850248
            0.805,      -1.64312356,    -0.9543136859
             0.81,      -1.65505561,    -0.9691496722
            0.815,     -1.667018231,    -0.9840908204
             0.82,     -1.679009416,    -0.9991348493
            0.825,     -1.691027063,     -1.014279353
             0.83,     -1.703068977,     -1.029521801
            0.835,     -1.715132872,     -1.044859535
             0.84,     -1.727216381,     -1.060289774
            0.845,     -1.739317062,     -1.075809618
             0.85,     -1.751432402,     -1.091416048
            0.855,     -1.763559826,     -1.107105929
             0.86,     -1.775696687,     -1.122876006
            0.865,     -1.787840263,     -1.138722897
             0.87,     -1.799987742,     -1.154643087
            0.875,     -1.812136215,     -1.170632916
             0.88,     -1.824282661,     -1.186688574
            0.885,      -1.83642394,     -1.202806089
             0.89,     -1.848556787,     -1.218981324
            0.895,     -1.860677809,     -1.235209975
              0.9,     -1.872783489,     -1.251487566
            0.905,     -1.884870186,     -1.267809454
             0.91,     -1.896934142,     -1.284170826
            0.915,     -1.908971482,     -1.300566701
             0.92,     -1.920978219,     -1.316991931
            0.925,     -1.932950254,     -1.333441202
             0.93,     -1.944883376,      -1.34990903
            0.935,      -1.95677326,     -1.366389758
             0.94,     -1.968615463,     -1.382877556
            0.945,     -1.980405418,     -1.399366413
             0.95,     -1.992138427,     -1.415850133
            0.955,     -2.003809657,     -1.432322329
             0.96,     -2.015414133,     -1.448776418
            0.965,     -2.026946732,     -1.465205619
             0.97,     -2.038402185,     -1.481602946
            0.975,     -2.049775073,     -1.497961211
             0.98,     -2.061059827,     -1.514273021
            0.985,     -2.072250738,     -1.530530786
             0.99,     -2.083341958,     -1.546726716
            0.995,     -2.094327513,     -1.562852834
                1,     -2.105201309,     -1.578900982
            1.005,     -2.115957141,     -1.594862822
             1.01,      -2.12658871,     -1.610729859
            1.015,      -2.13708963,     -1.626493437
             1.02,     -2.147453434,     -1.642144756
            1.025,     -2.157673587,     -1.657674875
             1.03,       -2.1677435,      -1.67307473
            1.035,     -2.177656527,     -1.688335132
             1.04,     -2.187405984,     -1.703446785
            1.045,     -2.196985157,     -1.718400295
             1.05,     -2.206387312,     -1.733186183
            1.055,      -2.21560571,     -1.747794896
             1.06,      -2.22463363,     -1.762216834
            1.065,     -2.233464381,     -1.776442361
             1.07,     -2.242091328,     -1.790461827
            1.075,     -2.250507917,     -1.804265603
             1.08,     -2.258707706,     -1.817844101
            1.085,     -2.266684385,     -1.831187802
             1.09,     -2.274431805,     -1.844287282
            1.095,     -2.281944015,     -1.857133252
              1.1,     -2.289215281,     -1.869716581
            1.105,     -2.296240111,     -1.882028318
             1.11,     -2.303013283,      -1.89405973
            1.115,     -2.309529859,     -1.905802316
             1.12,     -2.315785209,     -1.917247838
            1.125,      -2.32177502,     -1.928388335
             1.13,     -2.327495307,     -1.939216139
            1.135,     -2.332942421,     -1.949723894
             1.14,      -2.33811305,     -1.959904559
            1.145,     -2.343004222,     -1.969751422
             1.15,     -2.347613295,     -1.979258096
            1.155,     -2.351937943,     -1.988418519
             1.16,     -2.355976156,     -1.997226955
            1.165,      -2.35972621,     -2.005677978
             1.17,     -2.363186634,     -2.013766449
            1.175,     -2.366356186,     -2.021487502
             1.18,     -2.369233833,     -2.028836531
            1.185,      -2.37181869,      -2.03580914
             1.19,     -2.374109985,     -2.042401119
            1.195,     -2.376107022,     -2.048608414
              1.2,     -2.377809146,     -2.054427102
            1.205,     -2.379215706,     -2.059853359
             1.21,     -2.380326007,      -2.06488342
            1.215,     -2.381139294,     -2.069513568
             1.22,     -2.381654727,     -2.073740114
            1.225,     -2.381871375,     -2.077559394
             1.23,     -2.381788183,      -2.08096774
            1.235,     -2.381403943,     -2.083961456
             1.24,     -2.380717304,     -2.086536828
            1.245,     -2.379726753,     -2.088690112
             1.25,     -2.378430593,     -2.090417513
            1.255,     -2.376826933,     -2.091715178
             1.26,     -2.374913692,     -2.092579202
            1.265,     -2.372688604,     -2.093005636
             1.27,     -2.370149234,     -2.092990501
            1.275,     -2.367293001,      -2.09252981
             1.28,     -2.364117213,     -2.091619607
            1.285,     -2.360619117,     -2.090256008
             1.29,     -2.356795946,     -2.088435251
            1.295,     -2.352644975,     -2.086153747
              1.3,      -2.34816356,     -2.083408119
            1.305,     -2.343349196,     -2.080195255
             1.31,     -2.338199564,      -2.07651236
            1.315,      -2.33271255,     -2.072356972
             1.32,     -2.326886259,     -2.067726975
            1.325,     -2.320719029,     -2.062620625
             1.33,     -2.314209428,     -2.057036541
            1.335,      -2.30735619,     -2.050973658
             1.34,     -2.300158179,     -2.044431193
            1.345,     -2.292614376,     -2.037408639
             1.35,     -2.284723819,     -2.029905716
            1.355,     -2.276485558,     -2.021922327
             1.36,     -2.267898641,     -2.013458556
            1.365,       -2.2589621,     -2.004514657
             1.37,     -2.249674968,     -1.995091063
            1.375,     -2.240036295,     -1.985188416
             1.38,       -2.2300452,     -1.974807606
            1.385,     -2.219700908,     -1.963949813
             1.39,     -2.209002782,     -1.952616531
            1.395,     -2.197950352,     -1.940809599
              1.4,     -2.186543339,     -1.928531225
            1.405,     -2.174781638,      -1.91578397
             1.41,     -2.162665295,     -1.902570731
            1.415,     -2.150194475,     -1.888894712
             1.42,     -2.137369416,     -1.874759385
            1.425,     -2.124190389,     -1.860168459
             1.43,     -2.110657671,     -1.845125855
            1.435,      -2.09677151,     -1.829635678
             1.44,     -2.082532128,      -1.81370222
            1.445,     -2.067939718,     -1.797329966
             1.45,     -2.052994472,     -1.780523612
            1.455,     -2.037696613,     -1.763288098
             1.46,     -2.022046428,     -1.745628637
            1.465,     -2.006044312,     -1.727550759
             1.47,     -1.989690816,     -1.709060346
            1.475,      -1.97298667,     -1.690163655
             1.48,     -1.955932799,     -1.670867329
            1.485,     -1.938530321,     -1.651178398
             1.49,     -1.920780524,     -1.631104252
            1.495,     -1.902684818,     -1.610652606
              1.5,      -1.88424468,     -1.589831449
            1.505,     -1.865461601,     -1.568648996
             1.51,     -1.846337032,     -1.547113652
            1.515,     -1.826872359,     -1.525233982
             1.52,     -1.807068903,     -1.503018718
            1.525,      -1.78692793,      -1.48047677
             1.53,     -1.766450684,     -1.457617253
            1.535,     -1.745638445,     -1.434449534
             1.54,     -1.724492566,     -1.410983266
            1.545,     -1.703014505,      -1.38722841
             1.55,     -1.681205849,     -1.363195255
            1.555,      -1.65906831,     -1.338894412
             1.56,     -1.636603719,     -1.314336808
            1.565,     -1.613814001,     -1.289533661
             1.57,     -1.590701164,     -1.264496474
            1.575,     -1.567267301,     -1.239237031
             1.58,     -1.543514584,     -1.213767389
            1.585,     -1.519445259,     -1.188099879
             1.59,     -1.495061682,     -1.162247122
            1.595,     -1.470366327,     -1.136222041
              1.6,     -1.445361782,     -1.110037848
            1.605,     -1.420050742,      -1.08370804
             1.61,     -1.394435997,     -1.057246383
            1.615,     -1.368520407,     -1.030666889
             1.62,     -1.342306874,     -1.003983795
            1.625,     -1.315798324,    -0.9772115486
             1.63,     -1.288997697,    -0.9503647896
            1.635,     -1.261907935,    -0.9234583508
             1.64,     -1.234531995,    -0.8965072585
            1.645,     -1.206872857,    -0.8695267374
             1.65,     -1.178933529,     -0.842532215
            1.655,     -1.150717069,    -0.8155393297
             1.66,     -1.122226585,    -0.7885639321
            1.665,     -1.093465234,    -0.7616220792
             1.67,     -1.064436221,    -0.7347300284
            1.675,      -1.03514279,    -0.7079042321
             1.68,     -1.005588231,    -0.6811613334
            1.685,    -0.9757758737,     -0.654518164
             1.69,    -0.9457090969,    -0.6279917422
            1.695,    -0.9153913316,    -0.6015992738
              1.7,    -0.8848260651,    -0.5753581489
            1.705,    -0.8540168402,    -0.5492859375
             1.71,    -0.8229672559,    -0.5234003853
            1.715,     -0.791680956,    -0.4977194015
             1.72,    -0.7601616118,    -0.4722610436
            1.725,    -0.7284129109,    -0.4470435065
             1.73,    -0.6964385422,    -0.4220851099
            1.735,    -0.6642421889,    -0.3974042906
             1.74,    -0.6318275255,    -0.3730195981
            1.745,    -0.5991982145,    -0.3489496901
             1.75,    -0.5663579104,    -0.3252133314
            1.755,    -0.5333102613,    -0.3018293923
             1.76,    -0.5000589031,    -0.2788168425
            1.765,    -0.4666074515,    -0.2561947436
             1.77,    -0.4329594939,    -0.2339822427
            1.775,    -0.3991185671,    -0.2121985579
             1.78,    -0.3650881331,    -0.1908629647
            1.785,    -0.3308715598,    -0.1699947867
             1.79,    -0.2964720995,     -0.149613385
            1.795,    -0.2618928699,    -0.1297381513
              1.8,    -0.2271368357,    -0.1103885022
            1.805,    -0.1922067952,   -0.09158387706
             1.81,    -0.1571053691,   -0.07334373819
            1.815,    -0.1218349925,   -0.05568757309
             1.82,   -0.08639790644,   -0.03863489742
            1.825,   -0.05079615141,    -0.0222052598
             1.83,   -0.01503156402,  -0.006418248605
            1.835,    0.02089422793,    0.00870650137
             1.84,    0.05697981586,    0.02314930375
