             Time,          Y-Force,   Work integrand
                0,  3.150717796e-07,                0
             0.01,   -0.01917722497, -2.862200827e-06
             0.02,   -0.04780800858,  -2.83979571e-05
             0.03,   -0.07158556083, -9.519089951e-05
             0.04,   -0.09478342489, -0.0002229306154
             0.05,    -0.1182995597, -0.0004325327651
             0.06,    -0.1415323426, -0.0007413464106
             0.07,    -0.1645129149,  -0.001166848977
             0.08,    -0.1873032618,  -0.001726186861
             0.09,    -0.2098908473,  -0.002435415974
              0.1,    -0.2322744447,  -0.003309910837
             0.11,    -0.2544590234,  -0.004364417555
             0.12,    -0.2764477585,  -0.005612995288
             0.13,    -0.2982441026,  -0.007069056281
             0.14,    -0.3198521921,  -0.008745398637
             0.15,    -0.3412765125,   -0.01065422612
             0.16,    -0.3625218744,   -0.01280717278
             0.17,    -0.3835933863,   -0.01521532756
             0.18,    -0.4044962333,   -0.01788925041
             0.19,    -0.4252352294,   -0.02083897134
              0.2,    -0.4458145032,   -0.02407398317
             0.21,    -0.4662380146,   -0.02760327197
             0.22,    -0.4865110083,   -0.03143542229
             0.23,    -0.5066409357,   -0.03557873305
             0.24,    -0.5266362668,   -0.04004120864
             0.25,    -0.5465042612,   -0.04483042768
             0.26,    -0.5662505792,    -0.0499534936
             0.27,    -0.5858809545,   -0.05541716125
             0.28,    -0.6054022156,   -0.06122795848
             0.29,    -0.6248216231,   -0.06739216683
              0.3,     -0.644146234,   -0.07391578035
             0.31,    -0.6633831428,   -0.08080454463
             0.32,     -0.682539741,   -0.08806400755
             0.33,    -0.7016236256,   -0.09569953306
             0.34,    -0.7206425514,    -0.1037163173
             0.35,    -0.7396044745,    -0.1121194158
             0.36,    -0.7585175968,    -0.1209137731
             0.37,    -0.7773903457,    -0.1301042426
             0.38,    -0.7962313976,    -0.1396956138
             0.39,    -0.8150496748,    -0.1496926346
              0.4,    -0.8338543571,    -0.1601000366
             0.41,    -0.8526548702,    -0.1709225558
             0.42,    -0.8714608829,    -0.1821649542
             0.43,    -0.8902822906,    -0.1938320377
             0.44,    -0.9091291894,     -0.205928671
             0.45,    -0.9280118546,    -0.2184597907
             0.46,    -0.9469407072,     -0.231430415
             0.47,    -0.9659262633,    -0.2448456455
             0.48,    -0.9849790898,    -0.2587106678
             0.49,     -1.004109738,    -0.2730307422
              0.5,     -1.023328691,    -0.2878111943
             0.51,     -1.042646301,    -0.3030573984
             0.52,     -1.062072691,    -0.3187747457
             0.53,     -1.081617693,    -0.3349686169
             0.54,     -1.101290766,    -0.3516443442
             0.55,     -1.121100926,    -0.3688071701
             0.56,      -1.14105666,    -0.3864621979
             0.57,     -1.161165861,    -0.4046143403
             0.58,     -1.181435762,    -0.4232682648
             0.59,      -1.20187289,    -0.4424283404
              0.6,      -1.22248302,    -0.4620985816
             0.61,     -1.243271145,    -0.4822825939
             0.62,     -1.264241471,    -0.5029835261
             0.63,     -1.285397391,    -0.5242040157
             0.64,     -1.306741516,    -0.5459461517
             0.65,     -1.328275683,     -0.568211432
             0.66,     -1.350000986,    -0.5910007316
             0.67,     -1.371917812,     -0.614314271
             0.68,     -1.394025866,    -0.6381515848
             0.69,     -1.416324221,    -0.6625115025
              0.7,     -1.438811343,    -0.6873921189
             0.71,     -1.461485124,    -0.7127907747
             0.72,      -1.48434289,    -0.7387040198
             0.73,     -1.507381415,    -0.7651275873
             0.74,     -1.530596917,    -0.7920563536
             0.75,     -1.553985024,    -0.8194842902
             0.76,     -1.577540753,    -0.8474044111
             0.77,     -1.601258435,    -0.8758087014
             0.78,     -1.625131645,    -0.9046880351
             0.79,     -1.649153099,    -0.9340320774
              0.8,      -1.67331452,    -0.9638291638
             0.81,     -1.697606491,    -0.9940661595
             0.82,     -1.722018254,     -1.024728291
             0.83,       -1.7465375,     -1.055798948
             0.84,     -1.771150113,     -1.087259462
             0.85,     -1.795839875,     -1.119088842
             0.86,     -1.820588141,     -1.151263476
             0.87,     -1.845373493,     -1.183756809
             0.88,     -1.870171349,     -1.216538982
             0.89,     -1.894953573,     -1.249576444
              0.9,     -1.919688061,     -1.282831547
             0.91,     -1.944338347,     -1.316262133
             0.92,     -1.968863226,     -1.349821126
             0.93,     -1.993216429,     -1.383456144
             0.94,     -2.017346356,     -1.417109156
             0.95,     -2.041195915,     -1.450716209
             0.96,     -2.064702462,     -1.484207235
             0.97,     -2.087797913,     -1.517505996
             0.98,     -2.110409027,     -1.550530175
             0.99,     -2.132457907,     -1.583191661
                1,     -2.153862791,     -1.615397094
             1.01,     -2.174539136,     -1.647048674
             1.02,     -2.194401078,     -1.678045338
             1.03,     -2.213363293,     -1.708284303
             1.04,     -2.231343258,     -1.737663025
             1.05,     -2.248263872,      -1.76608153
             1.06,     -2.264056278,     -1.793445012
             1.07,     -2.278662667,     -1.819666519
             1.08,     -2.292038704,     -1.844669422
             1.09,     -2.304155158,     -1.868389302
              1.1,     -2.314998345,     -1.890774898
             1.11,     -2.324569077,     -1.911787791
             1.12,     -2.332880115,     -1.931400779
             1.13,     -2.339952326,     -1.949595044
             1.14,     -2.345810126,     -1.966356572
             1.15,     -2.350476874,     -1.981672362
             1.16,      -2.35397096,     -1.995527094
             1.17,     -2.356303101,     -2.007900714
             1.18,     -2.357475127,     -2.018767246
             1.19,     -2.357480224,     -2.028094855
              1.2,     -2.356304379,     -2.035846983
             1.21,      -2.35392861,     -2.041984225
             1.22,     -2.350331544,      -2.04646658
             1.23,     -2.345491939,     -2.049255721
             1.24,     -2.339390849,     -2.050317001
             1.25,     -2.332013222,     -2.049620996
             1.26,     -2.323348854,     -2.047144496
             1.27,     -2.313392625,     -2.042870853
             1.28,     -2.302144281,     -2.036789923
             1.29,     -2.289607629,      -2.02889745
              1.3,     -2.275789503,     -2.019194236
             1.31,     -2.260698593,     -2.007685163
             1.32,     -2.244344237,     -1.994378153
             1.33,     -2.226735288,     -1.979283205
             1.34,     -2.207879083,     -1.962411502
             1.35,     -2.187780548,     -1.943774648
             1.36,     -2.166441428,     -1.923384032
             1.37,     -2.143859719,     -1.901250369
             1.38,     -2.120029274,     -1.877383443
             1.39,      -2.09493967,     -1.851792069
              1.4,     -2.068576287,     -1.824484285
             1.41,     -2.040920692,     -1.795467835
             1.42,      -2.01195129,     -1.764750883
             1.43,     -1.981644176,     -1.732342935
             1.44,     -1.949974175,     -1.698255909
             1.45,     -1.916915953,     -1.662505264
             1.46,     -1.882445276,     -1.625111242
             1.47,     -1.846540136,      -1.58609996
             1.48,     -1.809181788,     -1.545504398
             1.49,     -1.770355707,     -1.503365264
              1.5,     -1.730052313,     -1.459731639
             1.51,     -1.688267488,     -1.414661372
             1.52,     -1.645002904,     -1.368221295
             1.53,     -1.600266112,     -1.320487187
             1.54,     -1.554070472,     -1.271543568
             1.55,     -1.506434935,     -1.221483352
             1.56,     -1.457383699,      -1.17040736
             1.57,     -1.406945768,     -1.118423751
             1.58,     -1.355154431,      -1.06564737
             1.59,     -1.302046707,     -1.012199066
              1.6,     -1.247662745,    -0.9582049885
             1.61,      -1.19204523,    -0.9037958786
             1.62,     -1.135238794,    -0.8491063971
             1.63,     -1.077289454,    -0.7942744723
             1.64,     -1.018244062,    -0.7394406919
             1.65,    -0.9581497992,    -0.6847477425
             1.66,    -0.8970536839,    -0.6303398885
             1.67,    -0.8350021135,    -0.5763625051
             1.68,      -0.77204044,    -0.5229616651
             1.69,    -0.7082125705,     -0.470283777
              1.7,    -0.6435606092,    -0.4184752861
             1.71,    -0.5781245141,    -0.3676824214
             1.72,    -0.5119417777,    -0.3180509966
             1.73,    -0.4450471284,     -0.269726264
             1.74,    -0.3774722261,    -0.2228528078
             1.75,    -0.3092453641,    -0.1775744864
             1.76,    -0.2403911662,    -0.1340344218
             1.77,    -0.1709302608,   -0.09237502892
             1.78,    -0.1008789519,   -0.05273810377
             1.79,   -0.03024884711,   -0.01526495213
              1.8,    0.04095354432,    0.01990342254
             1.81,     0.1127272814,    0.05262608313
             1.82,      0.185077539,    0.08276186342
             1.83,     0.2580162592,     0.1101690079
             1.84,     0.3315629347,     0.1347047366
             1.85,     0.4057454784,     0.1562246887
             1.86,     0.4806013739,     0.1745822939
             1.87,     0.5561788511,     0.1896279279
             1.88,     0.6325384185,     0.2012079408
             1.89,     0.7097544974,     0.2091634083
              1.9,     0.7879172727,     0.2133286016
             1.91,     0.8671345973,     0.2135290764
             1.92,     0.9475338826,     0.2095793343
             1.93,      1.029263398,     0.2012799196
             1.94,      1.112493132,     0.1884140618
             1.95,      1.197414354,      0.170743803
             1.96,      1.284237665,     0.1480058225
             1.97,      1.373189461,      0.119907247
             1.98,      1.464506705,    0.08612178127
             1.99,      1.558431041,    0.04628657076
                2,      1.655203241, -6.247992145e-15
              nan,     -2.267632598,     -1.589955995
