             Time,          Y-Force,   Work integrand
                0, -4.579799486e-06,                0
            0.005, -0.0003728626436, -1.394739326e-08
             0.01,  -0.001455945472, -2.172998617e-07
            0.015,  -0.003233297034, -1.083053466e-06
             0.02,  -0.005681705302, -3.374932949e-06
            0.025,  -0.008778559712, -8.127025983e-06
             0.03,   -0.01250752914, -1.663188688e-05
            0.035,   -0.01683458632, -3.039221519e-05
             0.04,   -0.02174275288, -5.113895478e-05
            0.045,   -0.02721008769, -8.079100191e-05
             0.05,   -0.03321486315, -0.0001214418434
            0.055,   -0.03973519984, -0.0001753402613
             0.06,   -0.04674915594, -0.0002448720788
            0.065,   -0.05423585163, -0.0003325488191
             0.07,   -0.06217485813,  -0.000440990725
            0.075,   -0.07054513226, -0.0005729036327
             0.08,   -0.07932573969,  -0.000731066017
            0.085,   -0.08849651176,  -0.000918320006
             0.09,     -0.098037548,  -0.001137554179
            0.095,    -0.1079288869,  -0.001391685659
              0.1,    -0.1181508328,  -0.001683649368
            0.105,    -0.1286841289,  -0.002016387808
             0.11,    -0.1395097247,  -0.002392835921
            0.115,    -0.1506086609,  -0.002815906599
             0.12,    -0.1619622318,  -0.003288481154
            0.125,    -0.1735520679,  -0.003813399929
             0.13,    -0.1853600205,  -0.004393449547
            0.135,    -0.1973681156,  -0.005031351178
             0.14,    -0.2095586674,  -0.005729753083
            0.145,    -0.2219143452,  -0.006491223446
             0.15,    -0.2344181003,  -0.007318240069
            0.155,    -0.2470530937,  -0.008213179734
             0.16,    -0.2598027299,  -0.009178310842
            0.165,    -0.2726507374,   -0.01021578859
             0.17,    -0.2855812141,   -0.01132765025
            0.175,    -0.2985786558,   -0.01251581077
             0.18,    -0.3116280384,   -0.01378206162
            0.185,    -0.3247149803,   -0.01512807519
             0.19,    -0.3378259355,   -0.01655541334
            0.195,    -0.3509483324,     -0.018065537
              0.2,     -0.364070605,   -0.01965981267
            0.205,    -0.3771820965,   -0.02133951322
             0.21,    -0.3902728699,   -0.02310581256
            0.215,    -0.4033335084,    -0.0249597774
             0.22,    -0.4163550049,   -0.02690236229
            0.225,    -0.4293287826,   -0.02893441205
             0.23,    -0.4422467814,   -0.03105666966
            0.235,    -0.4551015059,   -0.03326978316
             0.24,    -0.4678859929,   -0.03557430781
            0.245,    -0.4805937612,   -0.03797070683
             0.25,    -0.4932188282,     -0.040459357
            0.255,    -0.5057557958,   -0.04304056105
             0.26,    -0.5181999222,   -0.04571456074
            0.265,    -0.5305471064,    -0.0484815438
             0.27,    -0.5427938019,   -0.05134164443
            0.275,    -0.5549369429,   -0.05429494378
             0.28,    -0.5669739404,   -0.05734147643
            0.285,    -0.5789027284,   -0.06048124245
             0.29,    -0.5907217903,   -0.06371421854
            0.295,    -0.6024301224,   -0.06704036309
              0.3,    -0.6140271507,   -0.07045961554
            0.305,    -0.6255126555,   -0.07397189516
             0.31,    -0.6368867333,   -0.07757710311
            0.315,    -0.6481497907,   -0.08127512785
             0.32,    -0.6593025436,   -0.08506585139
            0.325,     -0.670346008,   -0.08894915448
             0.33,    -0.6812814851,   -0.09292492104
            0.335,     -0.692110548,   -0.09699304268
             0.34,    -0.7028350284,     -0.101153423
            0.345,    -0.7134569916,    -0.1054059799
             0.35,       -0.7239787,    -0.1097506461
            0.355,    -0.7344025751,     -0.114187368
             0.36,    -0.7447311756,    -0.1187161072
            0.365,    -0.7549672049,    -0.1233368453
             0.37,    -0.7651135363,    -0.1280495927
            0.375,    -0.7751732377,    -0.1328543977
             0.38,     -0.785149574,    -0.1377513522
            0.385,    -0.7950459785,    -0.1427405922
             0.39,     -0.804866002,    -0.1478222936
            0.395,    -0.8146132548,    -0.1529966648
              0.4,    -0.8242913624,    -0.1582639416
            0.405,     -0.833903947,    -0.1636243848
             0.41,    -0.8434546351,    -0.1690782836
            0.415,    -0.8529470872,    -0.1746259629
             0.42,    -0.8623850398,    -0.1802677944
            0.425,    -0.8717723411,    -0.1860042072
             0.43,    -0.8811129661,    -0.1918356947
            0.435,    -0.8904110048,    -0.1977628163
             0.44,    -0.8996706237,    -0.2037861923
            0.445,    -0.9088960063,    -0.2099064935
             0.45,    -0.9180912864,    -0.2161244269
            0.455,    -0.9272604889,    -0.2224407215
             0.46,    -0.9364074893,    -0.2288561176
            0.465,    -0.9455359989,    -0.2353713602
             0.47,    -0.9546495801,    -0.2419872008
            0.475,    -0.9637516853,    -0.2487044046
             0.48,     -0.972845707,     -0.255523762
            0.485,    -0.9819350207,    -0.2624460996
             0.49,    -0.9910230067,    -0.2694722866
            0.495,     -1.000113039,    -0.2766032323
              0.5,     -1.009208453,    -0.2838398773
            0.505,     -1.018312491,     -0.291183179
             0.51,     -1.027428267,     -0.298634098
            0.515,     -1.036558745,    -0.3061935903
             0.52,     -1.045706744,     -0.313862605
            0.525,     -1.054874963,    -0.3216420898
             0.53,     -1.064066018,    -0.3295329993
            0.535,     -1.073282468,    -0.3375363014
             0.54,     -1.082526827,    -0.3456529809
            0.545,      -1.09180156,    -0.3538840361
             0.55,     -1.101109061,    -0.3622304713
            0.555,     -1.110451625,    -0.3706932864
             0.56,     -1.119831431,    -0.3792734676
            0.565,     -1.129250523,    -0.3879719793
             0.57,     -1.138710812,    -0.3967897606
            0.575,     -1.148214082,    -0.4057277253
             0.58,     -1.157762009,    -0.4147867641
            0.585,     -1.167356172,    -0.4239677469
             0.59,     -1.176998069,    -0.4332715268
            0.595,     -1.186689127,    -0.4426989402
              0.6,     -1.196430706,     -0.452250807
            0.605,     -1.206224093,    -0.4619279266
             0.61,     -1.216070495,     -0.471731074
            0.615,     -1.225971032,    -0.4816609931
             0.62,     -1.235926722,    -0.4917183901
            0.625,     -1.245938477,    -0.5019039273
             0.63,     -1.256007089,    -0.5122182171
            0.635,     -1.266133234,    -0.5226618171
             0.64,     -1.276317469,    -0.5332352281
            0.645,     -1.286560237,    -0.5439388925
             0.65,     -1.296861878,    -0.5547731952
            0.655,     -1.307222639,    -0.5657384655
             0.66,     -1.317642684,    -0.5768349791
            0.665,     -1.328122109,    -0.5880629605
             0.67,     -1.338660943,     -0.599422585
            0.675,      -1.34925916,    -0.6109139785
             0.68,     -1.359916678,     -0.622537217
            0.685,     -1.370633354,    -0.6342923233
             0.69,     -1.381408983,    -0.6461792626
            0.695,     -1.392243289,    -0.6581979378
              0.7,     -1.403135915,    -0.6703481834
            0.705,     -1.414086422,    -0.6826297603
             0.71,     -1.425094282,    -0.6950423515
            0.715,     -1.436158874,    -0.7075855589
             0.72,     -1.447279495,    -0.7202589026
            0.725,     -1.458455356,    -0.7330618203
             0.73,     -1.469685596,    -0.7459936698
            0.735,     -1.480969289,    -0.7590537315
             0.74,     -1.492305453,    -0.7722412103
            0.745,     -1.503693054,    -0.7855552372
             0.75,     -1.515131014,    -0.7989948708
            0.755,     -1.526618209,     -0.812559096
             0.76,     -1.538153464,    -0.8262468202
            0.765,     -1.549735552,    -0.8400568695
             0.77,     -1.561363182,    -0.8539879827
            0.775,      -1.57303499,    -0.8680388045
             0.78,     -1.584749533,    -0.8822078785
            0.785,     -1.596505278,    -0.8964936412
             0.79,       -1.6083006,    -0.9108944173
            0.795,     -1.620133781,    -0.9254084165
              0.8,     -1.632003009,    -0.9400337329
            0.805,     -1.643906385,    -0.9547683449
             0.81,     -1.655841929,    -0.9696101167
            0.815,     -1.667807588,    -0.9845568011
             0.82,      -1.67980124,    -0.9996060431
            0.825,      -1.69182071,     -1.014755383
             0.83,     -1.703863766,     -1.030002259
            0.835,     -1.715928128,     -1.045344006
             0.84,     -1.728011469,     -1.060777857
            0.845,     -1.740111411,     -1.076300942
             0.85,     -1.752225522,     -1.091910286
            0.855,     -1.764351311,     -1.107602798
             0.86,     -1.776486216,     -1.123375271
            0.865,     -1.788627598,     -1.139224372
             0.87,     -1.800772726,     -1.155146633
            0.875,     -1.812918767,     -1.171138442
             0.88,     -1.825062781,     -1.187196039
            0.885,     -1.837201701,       -1.2033155
             0.89,     -1.849332335,     -1.219492738
            0.895,     -1.861451353,     -1.235723492
              0.9,     -1.873555289,     -1.252003322
            0.905,     -1.885640547,     -1.268327618
             0.91,     -1.897703366,     -1.284691569
            0.915,     -1.909739866,     -1.301090195
             0.92,     -1.921746033,     -1.317518332
            0.925,     -1.933717714,     -1.333970633
             0.93,     -1.945650626,     -1.350441564
            0.935,     -1.957540367,     -1.366925419
             0.94,     -1.969382427,     -1.383416318
            0.945,     -1.981172132,     -1.399908178
             0.95,     -1.992904755,     -1.416394777
            0.955,     -2.004575434,     -1.432869706
             0.96,     -2.016179158,     -1.449326355
            0.965,     -2.027710831,     -1.465757958
             0.97,     -2.039165219,     -1.482157553
            0.975,     -2.050537014,     -1.498518032
             0.98,     -2.061820775,     -1.514832094
            0.985,     -2.073010902,      -1.53109223
             0.99,      -2.08410171,     -1.547290775
            0.995,     -2.095087386,     -1.563419875
                1,     -2.105962021,     -1.579471516
            1.005,     -2.116719557,     -1.595437479
             1.01,      -2.12735382,     -1.611309372
            1.015,     -2.137858593,     -1.627078679
             1.02,     -2.148227499,     -1.642736679
            1.025,     -2.158454096,     -1.658274517
             1.03,     -2.168531899,      -1.67368322
            1.035,     -2.178454349,     -1.688953683
             1.04,     -2.188214824,      -1.70407667
            1.045,     -2.197806653,     -1.719042839
             1.05,     -2.207223225,     -1.733842819
            1.055,     -2.216457907,     -1.748467157
             1.06,     -2.225504041,      -1.76290632
            1.065,     -2.234355041,     -1.777150769
             1.07,     -2.243004418,     -1.791190991
            1.075,     -2.251445667,     -1.805017411
             1.08,     -2.259672258,     -1.818620388
            1.085,      -2.26767796,     -1.831990482
             1.09,      -2.27545664,     -1.845118298
            1.095,     -2.283002244,      -1.85799448
              1.1,     -2.290308731,     -1.870609656
            1.105,     -2.297370233,     -1.882954581
             1.11,     -2.304181381,     -1.895020404
            1.115,     -2.310736868,     -1.906798328
             1.12,     -2.317031544,     -1.918279684
            1.125,     -2.323060646,     -1.929456132
             1.13,     -2.328819854,     -1.940319722
            1.135,     -2.334305342,     -1.950862937
             1.14,     -2.339513178,     -1.961078205
            1.145,     -2.344440076,     -1.970958537
             1.15,     -2.349083769,     -1.980497844
            1.155,     -2.353442043,     -1.989690143
             1.16,     -2.357513048,     -1.998529821
            1.165,     -2.361295512,     -2.007011825
             1.17,     -2.364788604,     -2.015131553
            1.175,     -2.367991865,       -2.0228848
             1.18,     -2.370905137,     -2.030267712
            1.185,     -2.373528708,     -2.037276904
             1.19,     -2.375862652,     -2.043908904
            1.195,      -2.37790641,     -2.050159793
              1.2,     -2.379660127,      -2.05602635
            1.205,     -2.381123825,     -2.061505351
             1.21,     -2.382296407,     -2.066592701
            1.215,     -2.383176474,     -2.071284136
             1.22,     -2.383762285,     -2.075575195
            1.225,     -2.384051509,     -2.079460991
             1.23,     -2.384041427,     -2.082936399
            1.235,     -2.383728863,     -2.085995988
             1.24,     -2.383110421,     -2.088634232
            1.245,     -2.382182958,     -2.090845927
             1.25,     -2.380943363,     -2.092626002
            1.255,     -2.379388459,     -2.093969437
             1.26,     -2.377515432,     -2.094871642
            1.265,     -2.375322087,     -2.095328695
             1.27,     -2.372806566,     -2.095337092
            1.275,     -2.369967023,     -2.094893468
             1.28,     -2.366801584,     -2.093994566
            1.285,     -2.363308537,     -2.092637407
             1.29,     -2.359486028,     -2.090819022
            1.295,       -2.3553317,     -2.088536139
              1.3,     -2.350843025,     -2.085785474
            1.305,     -2.346017701,     -2.082564092
             1.31,     -2.340853115,     -2.078868931
            1.315,     -2.335346312,     -2.074696777
             1.32,     -2.329494766,     -2.070044957
            1.325,     -2.323296563,     -2.064911499
             1.33,     -2.316750302,     -2.059295054
            1.335,      -2.30985521,     -2.053194999
             1.34,     -2.302611153,      -2.04661145
            1.345,     -2.295018592,     -2.039545227
             1.35,     -2.287078546,     -2.031997817
            1.355,     -2.278792265,     -2.023971091
             1.36,     -2.270161006,     -2.015467102
            1.365,      -2.26118602,     -2.006488076
             1.37,     -2.251868194,     -1.997036093
            1.375,     -2.242207848,     -1.987112912
             1.38,     -2.232204771,     -1.976720006
            1.385,     -2.221858081,      -1.96585844
             1.39,     -2.211166338,     -1.954528975
            1.395,     -2.200127736,     -1.942732248
              1.4,     -2.188740092,     -1.930468761
            1.405,     -2.177000853,     -1.917738896
             1.41,     -2.164907592,     -1.904543357
            1.415,     -2.152458441,     -1.890883553
             1.42,     -2.139652064,     -1.876761574
            1.425,     -2.126487707,     -1.862180237
             1.43,     -2.112965326,     -1.847143195
            1.435,     -2.099085622,     -1.831654964
             1.44,      -2.08484995,      -1.81572084
            1.445,     -2.070260213,     -1.799346803
             1.45,     -2.055318557,     -1.782539247
            1.455,     -2.040027098,     -1.765304745
             1.46,     -2.024387711,     -1.747649862
            1.465,     -2.008401692,     -1.729580871
             1.47,     -1.992069848,     -1.711103834
            1.475,     -1.975392564,      -1.69222467
             1.48,     -1.958369373,     -1.672948787
            1.485,     -1.940998794,     -1.653280964
             1.49,     -1.923279561,     -1.633226405
            1.495,     -1.905210601,     -1.612790722
              1.5,     -1.886790212,     -1.591979241
            1.505,      -1.86801709,     -1.570797883
             1.51,     -1.848890917,     -1.549253646
            1.515,     -1.829411972,     -1.527354274
             1.52,     -1.809581281,     -1.505108373
            1.525,     -1.789400671,     -1.482525446
             1.53,     -1.768872704,     -1.459615825
            1.535,     -1.748000574,     -1.436390575
             1.54,     -1.726788033,     -1.412861423
            1.545,     -1.705239233,     -1.389040612
             1.55,     -1.683358249,     -1.364940515
            1.555,     -1.661149149,     -1.340573682
             1.56,     -1.638616422,     -1.315953185
            1.565,     -1.615763555,     -1.291091471
             1.57,     -1.592592951,     -1.266000313
            1.575,     -1.569107926,     -1.240692411
             1.58,     -1.545311604,     -1.215180505
            1.585,     -1.521205755,     -1.189476463
             1.59,     -1.496792124,     -1.163592352
            1.595,     -1.472072643,     -1.137540593
              1.6,      -1.44704893,     -1.111333578
            1.605,     -1.421722535,     -1.084983865
             1.61,     -1.396095162,     -1.058504344
            1.615,     -1.370168703,     -1.031908262
             1.62,     -1.343945227,     -1.005209208
            1.625,     -1.317426987,    -0.9784211169
             1.63,     -1.290616496,    -0.9515583136
            1.635,     -1.263516629,    -0.9246355861
             1.64,     -1.236130715,    -0.8976682362
            1.645,     -1.208462464,    -0.8706720167
             1.65,      -1.18051597,    -0.8436631158
            1.655,     -1.152295678,    -0.8166581254
             1.66,     -1.123806181,    -0.7896738797
            1.665,     -1.095052202,    -0.7627274365
             1.67,     -1.066038742,    -0.7358361734
            1.675,     -1.036770985,    -0.7090177076
             1.68,     -1.007254039,    -0.6822897116
            1.685,    -0.9774928806,    -0.6556698754
             1.69,    -0.9474923935,    -0.6291759284
            1.695,    -0.9172568445,    -0.6028252972
              1.7,    -0.8867899615,    -0.5766351724
            1.705,    -0.8560957158,    -0.5506230272
             1.71,     -0.825177839,    -0.5248062979
            1.715,    -0.7940392438,     -0.499202026
             1.72,      -0.76268259,    -0.4738272366
            1.725,     -0.731110453,    -0.4486990492
             1.73,    -0.6993251494,    -0.4238345735
            1.735,    -0.6673288983,    -0.3992510139
             1.74,     -0.635123967,    -0.3749657579
            1.745,    -0.6027126206,    -0.3509963433
             1.75,    -0.5700970774,    -0.3273604312
            1.755,    -0.5372796458,    -0.3040758837
             1.76,     -0.504262792,    -0.2811607964
            1.765,    -0.4710490268,    -0.2586334279
             1.77,    -0.4376408665,    -0.2365121747
            1.775,    -0.4040409184,    -0.2148156144
             1.78,    -0.3702518954,    -0.1935625074
            1.785,    -0.3362765465,    -0.1727717542
             1.79,    -0.3021175764,    -0.1524623509
            1.795,    -0.2677775738,    -0.1326533532
              1.8,    -0.2332589837,    -0.1133638661
            1.805,    -0.1985641248,   -0.09461305658
             1.81,    -0.1636950939,   -0.07642011335
            1.815,    -0.1286537043,   -0.05880422706
             1.82,   -0.09344166639,   -0.04178468373
            1.825,   -0.05806056669,   -0.02538085921
             1.83,   -0.02251167554,  -0.009612142151
            1.835,    0.01320400238,   0.005502029807
             1.84,    0.04908565239,    0.01994212617
