 Time,X-Force, Y-Force, Work integrand
0.00000000E+00  0.64046410E-01  0.32957942E-03  0.00000000E+00
0.28213248E-03  0.64028738E-01  0.32980842E-03  0.13124777E-10
0.56414454E-03  0.64015398E-01  0.32920610E-03  0.91666620E-10
0.84614336E-03  0.63992578E-01  0.32784438E-03  0.24768936E-09
0.11281561E-02  0.63963532E-01  0.32524114E-03  0.47839784E-09
0.14101887E-02  0.63928846E-01  0.32104258E-03  0.77839612E-09
0.16922434E-02  0.63889274E-01  0.31502508E-03  0.11392972E-08
0.19743207E-02  0.63846020E-01  0.30701190E-03  0.15493914E-08
0.22564201E-02  0.63800576E-01  0.29684454E-03  0.19933123E-08
0.25385401E-02  0.63754516E-01  0.28437992E-03  0.24517656E-08
0.28206780E-02  0.63709336E-01  0.26949354E-03  0.29013506E-08
0.31028301E-02  0.63666360E-01  0.25208148E-03  0.33144686E-08
0.33849924E-02  0.63626686E-01  0.23206060E-03  0.36593038E-08
0.36671610E-02  0.63591188E-01  0.20936734E-03  0.38998528E-08
0.39493321E-02  0.63560506E-01  0.18395617E-03  0.39960038E-08
0.42315024E-02  0.63535070E-01  0.15579795E-03  0.39036472E-08
0.45136696E-02  0.63515118E-01  0.12487829E-03  0.35748220E-08
0.47958317E-02  0.63500708E-01  0.91196214E-04  0.29578852E-08
0.50779877E-02  0.63491742E-01  0.54762654E-04  0.19977004E-08
0.53601371E-02  0.63487986E-01  0.15598969E-04  0.63583226E-09
0.56422801E-02  0.63489086E-01  -.26264624E-04  -.11892609E-08
0.59244171E-02  0.63494596E-01  -.70790712E-04  -.35420464E-08
0.62065488E-02  0.63503986E-01  -.11793644E-03  -.64897616E-08
0.64886760E-02  0.63516676E-01  -.16765511E-03  -.10102278E-07
0.67707997E-02  0.63532042E-01  -.21989778E-03  -.14451997E-07
0.70529209E-02  0.63549442E-01  -.27461462E-03  -.19613776E-07
0.73350402E-02  0.63568238E-01  -.33175632E-03  -.25664882E-07
0.76171586E-02  0.63587802E-01  -.39127508E-03  -.32684984E-07
0.78992766E-02  0.63607546E-01  -.45312558E-03  -.40756162E-07
0.81813946E-02  0.63626920E-01  -.51726572E-03  -.49962946E-07
0.84635130E-02  0.63645436E-01  -.58365712E-03  -.60392374E-07
0.87456321E-02  0.63662666E-01  -.65226550E-03  -.72134054E-07
0.90277519E-02  0.63678252E-01  -.72306080E-03  -.85280248E-07
0.93098725E-02  0.63691914E-01  -.79601726E-03  -.99925952E-07
0.95919938E-02  0.63703440E-01  -.87111334E-03  -.11616897E-06
0.98741158E-02  0.63712692E-01  -.94833142E-03  -.13411001E-06
0.10156238E-01  0.63719600E-01  -.10276576E-02  -.15385271E-06
0.10438361E-01  0.63724156E-01  -.11090812E-02  -.17550375E-06
0.10720484E-01  0.63726412E-01  -.11925948E-02  -.19917286E-06
0.11002607E-01  0.63726464E-01  -.12781930E-02  -.22497286E-06
0.11284729E-01  0.63724450E-01  -.13658729E-02  -.25301964E-06
0.11566851E-01  0.63720548E-01  -.14556334E-02  -.28343232E-06
0.11848972E-01  0.63714948E-01  -.15474745E-02  -.31633308E-06
0.12131093E-01  0.63707870E-01  -.16413978E-02  -.35184726E-06
0.12413212E-01  0.63699532E-01  -.17374052E-02  -.39010334E-06
0.12695331E-01  0.63690160E-01  -.18354994E-02  -.43123288E-06
0.12977450E-01  0.63679976E-01  -.19356833E-02  -.47537056E-06
0.13259567E-01  0.63669192E-01  -.20379600E-02  -.52265402E-06
0.13541684E-01  0.63658006E-01  -.21423322E-02  -.57322402E-06
0.13823801E-01  0.63646602E-01  -.22488030E-02  -.62722420E-06
0.14105917E-01  0.63635146E-01  -.23573748E-02  -.68480122E-06
0.14388033E-01  0.63623776E-01  -.24680496E-02  -.74610458E-06
0.14670149E-01  0.63612618E-01  -.25808290E-02  -.81128670E-06
0.14952264E-01  0.63601772E-01  -.26957142E-02  -.88050280E-06
0.15234379E-01  0.63591316E-01  -.28127060E-02  -.95391090E-06
0.15516494E-01  0.63581310E-01  -.29318044E-02  -.10316718E-05
0.15798609E-01  0.63571792E-01  -.30530094E-02  -.11139489E-05
0.16080724E-01  0.63562788E-01  -.31763198E-02  -.12009086E-05
0.16362838E-01  0.63554304E-01  -.33017348E-02  -.12927198E-05
0.16644952E-01  0.63546332E-01  -.34292526E-02  -.13895539E-05
0.16927066E-01  0.63538858E-01  -.35588712E-02  -.14915853E-05
0.17209180E-01  0.63531854E-01  -.36905886E-02  -.15989908E-05
0.17491294E-01  0.63525286E-01  -.38244022E-02  -.17119499E-05
0.17773407E-01  0.63519116E-01  -.39603094E-02  -.18306449E-05
0.18055520E-01  0.63513298E-01  -.40983072E-02  -.19552604E-05
0.18337633E-01  0.63507790E-01  -.42383926E-02  -.20859840E-05
0.18619746E-01  0.63502548E-01  -.43805628E-02  -.22230056E-05
0.18901858E-01  0.63497524E-01  -.45248146E-02  -.23665180E-05
0.19183970E-01  0.63492676E-01  -.46711450E-02  -.25167164E-05
0.19466081E-01  0.63487966E-01  -.48195508E-02  -.26737990E-05
0.19748192E-01  0.63483354E-01  -.49700290E-02  -.28379664E-05
0.20030303E-01  0.63478808E-01  -.51225766E-02  -.30094216E-05
0.20312413E-01  0.63474298E-01  -.52771904E-02  -.31883710E-05
0.20594523E-01  0.63469802E-01  -.54338678E-02  -.33750226E-05
0.20876632E-01  0.63465298E-01  -.55926054E-02  -.35695880E-05
0.21158741E-01  0.63460770E-01  -.57534006E-02  -.37722806E-05
0.21440849E-01  0.63456208E-01  -.59162502E-02  -.39833168E-05
0.21722956E-01  0.63451602E-01  -.60811514E-02  -.42029156E-05
0.22005063E-01  0.63446948E-01  -.62481010E-02  -.44312982E-05
0.22287170E-01  0.63442248E-01  -.64170960E-02  -.46686886E-05
0.22569276E-01  0.63437502E-01  -.65881330E-02  -.49153130E-05
0.22851381E-01  0.63432716E-01  -.67612088E-02  -.51714006E-05
0.23133485E-01  0.63427896E-01  -.69363198E-02  -.54371822E-05
0.23415589E-01  0.63423050E-01  -.71134628E-02  -.57128914E-05
0.23697692E-01  0.63418192E-01  -.72926336E-02  -.59987644E-05
0.23979794E-01  0.63413328E-01  -.74738286E-02  -.62950390E-05
0.24261896E-01  0.63408474E-01  -.76570434E-02  -.66019558E-05
0.24543996E-01  0.63403638E-01  -.78422742E-02  -.69197578E-05
0.24826096E-01  0.63398836E-01  -.80295162E-02  -.72486894E-05
0.25108195E-01  0.63394076E-01  -.82187648E-02  -.75889978E-05
0.25390293E-01  0.63389372E-01  -.84100152E-02  -.79409326E-05
0.25672391E-01  0.63384736E-01  -.86032626E-02  -.83047446E-05
0.25954487E-01  0.63380174E-01  -.87985018E-02  -.86806874E-05
0.26236582E-01  0.63375698E-01  -.89957274E-02  -.90690166E-05
0.26518677E-01  0.63371314E-01  -.91949340E-02  -.94699896E-05
0.26800770E-01  0.63367034E-01  -.93961162E-02  -.98838660E-05
0.27082863E-01  0.63362858E-01  -.95992682E-02  -.10310908E-04
0.27364955E-01  0.63358796E-01  -.98043844E-02  -.10751378E-04
0.27647045E-01  0.63354852E-01  -.10011459E-01  -.11205543E-04
0.27929135E-01  0.63351026E-01  -.10220486E-01  -.11673669E-04
0.28211223E-01  0.63347326E-01  -.10431459E-01  -.12156028E-04
0.28493311E-01  0.63343748E-01  -.10644373E-01  -.12652890E-04
0.28775397E-01  0.63340298E-01  -.10859221E-01  -.13164529E-04
0.29057483E-01  0.63336972E-01  -.11075999E-01  -.13691222E-04
0.29339568E-01  0.63333772E-01  -.11294700E-01  -.14233245E-04
0.29621651E-01  0.63330698E-01  -.11515318E-01  -.14790880E-04
0.29903734E-01  0.63327746E-01  -.11737847E-01  -.15364409E-04
0.30185815E-01  0.63324916E-01  -.11962284E-01  -.15954114E-04
0.30467896E-01  0.63322202E-01  -.12188621E-01  -.16560284E-04
0.30749975E-01  0.63319606E-01  -.12416853E-01  -.17183206E-04
0.31032054E-01  0.63317122E-01  -.12646977E-01  -.17823172E-04
0.31314131E-01  0.63314748E-01  -.12878986E-01  -.18480474E-04
0.31596207E-01  0.63312478E-01  -.13112877E-01  -.19155408E-04
0.31878283E-01  0.63310308E-01  -.13348643E-01  -.19848271E-04
0.32160357E-01  0.63308234E-01  -.13586283E-01  -.20559364E-04
0.32442431E-01  0.63306252E-01  -.13825790E-01  -.21288986E-04
0.32724503E-01  0.63304356E-01  -.14067161E-01  -.22037446E-04
0.33006574E-01  0.63302540E-01  -.14310393E-01  -.22805046E-04
0.33288644E-01  0.63300800E-01  -.14555481E-01  -.23592098E-04
0.33570713E-01  0.63299130E-01  -.14802423E-01  -.24398910E-04
0.33852781E-01  0.63297522E-01  -.15051214E-01  -.25225800E-04
0.34134848E-01  0.63295974E-01  -.15301852E-01  -.26073080E-04
0.34416914E-01  0.63294474E-01  -.15554333E-01  -.26941070E-04
0.34698979E-01  0.63293020E-01  -.15808654E-01  -.27830090E-04
0.34981042E-01  0.63291604E-01  -.16064814E-01  -.28740460E-04
0.35263105E-01  0.63290218E-01  -.16322807E-01  -.29672508E-04
0.35545166E-01  0.63288860E-01  -.16582633E-01  -.30626558E-04
0.35827226E-01  0.63287518E-01  -.16844287E-01  -.31602938E-04
0.36109285E-01  0.63286188E-01  -.17107768E-01  -.32601982E-04
0.36391342E-01  0.63284866E-01  -.17373072E-01  -.33624022E-04
0.36673399E-01  0.63283542E-01  -.17640196E-01  -.34669390E-04
0.36955454E-01  0.63282212E-01  -.17909138E-01  -.35738424E-04
0.37237507E-01  0.63280872E-01  -.18179894E-01  -.36831464E-04
0.37519559E-01  0.63279514E-01  -.18452461E-01  -.37948848E-04
0.37801610E-01  0.63278134E-01  -.18726837E-01  -.39090920E-04
0.38083659E-01  0.63276730E-01  -.19003018E-01  -.40258022E-04
0.38365707E-01  0.63275294E-01  -.19281000E-01  -.41450500E-04
0.38647753E-01  0.63273826E-01  -.19560781E-01  -.42668702E-04
0.38929798E-01  0.63272324E-01  -.19842356E-01  -.43912974E-04
0.39211841E-01  0.63270782E-01  -.20125722E-01  -.45183668E-04
0.39493883E-01  0.63269202E-01  -.20410874E-01  -.46481138E-04
0.39775922E-01  0.63267582E-01  -.20697810E-01  -.47805734E-04
0.40057961E-01  0.63265922E-01  -.20986526E-01  -.49157810E-04
0.40339997E-01  0.63264222E-01  -.21277016E-01  -.50537726E-04
0.40622031E-01  0.63262482E-01  -.21569276E-01  -.51945838E-04
0.40904064E-01  0.63260706E-01  -.21863302E-01  -.53382506E-04
0.41186095E-01  0.63258896E-01  -.22159092E-01  -.54848088E-04
0.41468124E-01  0.63257054E-01  -.22456638E-01  -.56342950E-04
0.41750151E-01  0.63255184E-01  -.22755936E-01  -.57867452E-04
0.42032176E-01  0.63253292E-01  -.23056984E-01  -.59421964E-04
0.42314199E-01  0.63251378E-01  -.23359776E-01  -.61006848E-04
0.42596220E-01  0.63249452E-01  -.23664306E-01  -.62622476E-04
0.42878239E-01  0.63247516E-01  -.23970570E-01  -.64269216E-04
0.43160255E-01  0.63245578E-01  -.24278566E-01  -.65947442E-04
0.43442270E-01  0.63243642E-01  -.24588288E-01  -.67657526E-04
0.43724283E-01  0.63241716E-01  -.24899730E-01  -.69399842E-04
0.44006293E-01  0.63239806E-01  -.25212890E-01  -.71174768E-04
0.44288301E-01  0.63237920E-01  -.25527764E-01  -.72982684E-04
0.44570307E-01  0.63236060E-01  -.25844346E-01  -.74823972E-04
0.44852311E-01  0.63234236E-01  -.26162632E-01  -.76699008E-04
0.45134313E-01  0.63232456E-01  -.26482620E-01  -.78608180E-04
0.45416312E-01  0.63230720E-01  -.26804304E-01  -.80551872E-04
0.45698309E-01  0.63229040E-01  -.27127680E-01  -.82530474E-04
0.45980304E-01  0.63227420E-01  -.27452748E-01  -.84544378E-04
0.46262297E-01  0.63225864E-01  -.27779500E-01  -.86593974E-04
0.46544287E-01  0.63224376E-01  -.28107938E-01  -.88679662E-04
0.46826275E-01  0.63222964E-01  -.28438058E-01  -.90801838E-04
0.47108261E-01  0.63221628E-01  -.28769856E-01  -.92960900E-04
0.47390244E-01  0.63220374E-01  -.29103332E-01  -.95157254E-04
0.47672226E-01  0.63219206E-01  -.29438482E-01  -.97391302E-04
0.47954205E-01  0.63218122E-01  -.29775304E-01  -.99663452E-04
0.48236181E-01  0.63217128E-01  -.30113796E-01  -.10197411E-03
0.48518156E-01  0.63216222E-01  -.30453956E-01  -.10432369E-03
0.48800128E-01  0.63215406E-01  -.30795784E-01  -.10671260E-03
0.49082098E-01  0.63214678E-01  -.31139274E-01  -.10914126E-03
0.49364066E-01  0.63214040E-01  -.31484426E-01  -.11161008E-03
0.49646032E-01  0.63213486E-01  -.31831240E-01  -.11411947E-03
0.49927995E-01  0.63213020E-01  -.32179712E-01  -.11666987E-03
0.50209957E-01  0.63212634E-01  -.32529842E-01  -.11926169E-03
0.50491916E-01  0.63212326E-01  -.32881624E-01  -.12189536E-03
0.50773873E-01  0.63212094E-01  -.33235062E-01  -.12457129E-03
0.51055828E-01  0.63211932E-01  -.33590150E-01  -.12728992E-03
0.51337781E-01  0.63211834E-01  -.33946886E-01  -.13005167E-03
0.51619731E-01  0.63211798E-01  -.34305270E-01  -.13285697E-03
0.51901680E-01  0.63211816E-01  -.34665298E-01  -.13570626E-03
0.52183626E-01  0.63211884E-01  -.35026970E-01  -.13859997E-03
0.52465571E-01  0.63211992E-01  -.35390282E-01  -.14153853E-03
0.52747513E-01  0.63212138E-01  -.35755232E-01  -.14452236E-03
0.53029454E-01  0.63212312E-01  -.36121816E-01  -.14755192E-03
0.53311392E-01  0.63212508E-01  -.36490032E-01  -.15062763E-03
0.53593329E-01  0.63212720E-01  -.36859878E-01  -.15374993E-03
0.53875263E-01  0.63212938E-01  -.37231350E-01  -.15691926E-03
0.54157196E-01  0.63213160E-01  -.37604442E-01  -.16013605E-03
0.54439126E-01  0.63213374E-01  -.37979154E-01  -.16340074E-03
0.54721055E-01  0.63213574E-01  -.38355480E-01  -.16671377E-03
0.55002982E-01  0.63213756E-01  -.38733416E-01  -.17007558E-03
0.55284907E-01  0.63213910E-01  -.39112958E-01  -.17348660E-03
0.55566830E-01  0.63214032E-01  -.39494100E-01  -.17694728E-03
0.55848751E-01  0.63214114E-01  -.39876838E-01  -.18045805E-03
0.56130670E-01  0.63214152E-01  -.40261166E-01  -.18401935E-03
0.56412587E-01  0.63214140E-01  -.40647080E-01  -.18763162E-03
0.56694502E-01  0.63214070E-01  -.41034574E-01  -.19129529E-03
0.56976416E-01  0.63213940E-01  -.41423640E-01  -.19501081E-03
0.57258327E-01  0.63213746E-01  -.41814276E-01  -.19877861E-03
0.57540237E-01  0.63213480E-01  -.42206470E-01  -.20259914E-03
0.57822145E-01  0.63213144E-01  -.42600222E-01  -.20647282E-03
0.58104050E-01  0.63212730E-01  -.42995520E-01  -.21040010E-03
0.58385954E-01  0.63212238E-01  -.43392362E-01  -.21438140E-03
0.58667856E-01  0.63211664E-01  -.43790738E-01  -.21841718E-03
0.58949756E-01  0.63211008E-01  -.44190642E-01  -.22250788E-03
0.59231654E-01  0.63210266E-01  -.44592070E-01  -.22665392E-03
0.59513551E-01  0.63209440E-01  -.44995010E-01  -.23085576E-03
0.59795445E-01  0.63208530E-01  -.45399460E-01  -.23511382E-03
0.60077337E-01  0.63207532E-01  -.45805410E-01  -.23942856E-03
0.60359227E-01  0.63206450E-01  -.46212856E-01  -.24380040E-03
0.60641115E-01  0.63205284E-01  -.46621788E-01  -.24822978E-03
0.60923002E-01  0.63204034E-01  -.47032202E-01  -.25271716E-03
0.61204886E-01  0.63202704E-01  -.47444090E-01  -.25726298E-03
0.61486768E-01  0.63201294E-01  -.47857444E-01  -.26186766E-03
0.61768648E-01  0.63199808E-01  -.48272262E-01  -.26653168E-03
0.62050526E-01  0.63198248E-01  -.48688532E-01  -.27125546E-03
0.62332401E-01  0.63196616E-01  -.49106252E-01  -.27603946E-03
0.62614275E-01  0.63194916E-01  -.49525414E-01  -.28088412E-03
0.62896146E-01  0.63193152E-01  -.49946014E-01  -.28578988E-03
0.63178015E-01  0.63191326E-01  -.50368044E-01  -.29075722E-03
0.63459882E-01  0.63189446E-01  -.50791498E-01  -.29578658E-03
0.63741747E-01  0.63187512E-01  -.51216372E-01  -.30087838E-03
0.64023609E-01  0.63185528E-01  -.51642662E-01  -.30603312E-03
0.64305469E-01  0.63183502E-01  -.52070360E-01  -.31125124E-03
0.64587326E-01  0.63181436E-01  -.52499464E-01  -.31653320E-03
0.64869181E-01  0.63179334E-01  -.52929966E-01  -.32187946E-03
0.65151034E-01  0.63177200E-01  -.53361864E-01  -.32729046E-03
0.65432884E-01  0.63175042E-01  -.53795152E-01  -.33276670E-03
0.65714732E-01  0.63172862E-01  -.54229828E-01  -.33830864E-03
0.65996578E-01  0.63170664E-01  -.54665886E-01  -.34391672E-03
0.66278420E-01  0.63168452E-01  -.55103322E-01  -.34959144E-03
0.66560260E-01  0.63166234E-01  -.55542134E-01  -.35533324E-03
0.66842098E-01  0.63164010E-01  -.55982318E-01  -.36114262E-03
0.67123933E-01  0.63161786E-01  -.56423870E-01  -.36702004E-03
0.67405765E-01  0.63159566E-01  -.56866786E-01  -.37296598E-03
0.67687595E-01  0.63157354E-01  -.57311064E-01  -.37898092E-03
0.67969421E-01  0.63155152E-01  -.57756702E-01  -.38506534E-03
0.68251245E-01  0.63152966E-01  -.58203696E-01  -.39121972E-03
0.68533066E-01  0.63150798E-01  -.58652042E-01  -.39744452E-03
0.68814885E-01  0.63148652E-01  -.59101740E-01  -.40374026E-03
0.69096700E-01  0.63146530E-01  -.59552784E-01  -.41010742E-03
0.69378513E-01  0.63144434E-01  -.60005174E-01  -.41654646E-03
0.69660323E-01  0.63142370E-01  -.60458908E-01  -.42305788E-03
0.69942130E-01  0.63140336E-01  -.60913980E-01  -.42964220E-03
0.70223933E-01  0.63138338E-01  -.61370392E-01  -.43629986E-03
0.70505734E-01  0.63136376E-01  -.61828138E-01  -.44303140E-03
0.70787532E-01  0.63134450E-01  -.62287218E-01  -.44983728E-03
0.71069327E-01  0.63132566E-01  -.62747630E-01  -.45671802E-03
0.71351118E-01  0.63130722E-01  -.63209370E-01  -.46367410E-03
0.71632907E-01  0.63128920E-01  -.63672436E-01  -.47070600E-03
0.71914692E-01  0.63127160E-01  -.64136826E-01  -.47781426E-03
0.72196475E-01  0.63125444E-01  -.64602538E-01  -.48499934E-03
0.72478254E-01  0.63123772E-01  -.65069570E-01  -.49226176E-03
0.72760030E-01  0.63122146E-01  -.65537920E-01  -.49960202E-03
0.73041803E-01  0.63120562E-01  -.66007584E-01  -.50702062E-03
0.73323572E-01  0.63119024E-01  -.66478560E-01  -.51451804E-03
0.73605338E-01  0.63117530E-01  -.66950848E-01  -.52209482E-03
0.73887101E-01  0.63116082E-01  -.67424442E-01  -.52975144E-03
0.74168861E-01  0.63114676E-01  -.67899342E-01  -.53748840E-03
0.74450617E-01  0.63113312E-01  -.68375546E-01  -.54530622E-03
0.74732370E-01  0.63111992E-01  -.68853050E-01  -.55320540E-03
0.75014120E-01  0.63110712E-01  -.69331852E-01  -.56118644E-03
0.75295866E-01  0.63109474E-01  -.69811948E-01  -.56924986E-03
0.75577609E-01  0.63108274E-01  -.70293338E-01  -.57739616E-03
0.75859349E-01  0.63107114E-01  -.70776018E-01  -.58562582E-03
0.76141085E-01  0.63105990E-01  -.71259986E-01  -.59393940E-03
0.76422818E-01  0.63104900E-01  -.71745238E-01  -.60233736E-03
0.76704547E-01  0.63103846E-01  -.72231772E-01  -.61082024E-03
0.76986272E-01  0.63102826E-01  -.72719586E-01  -.61938854E-03
0.77267995E-01  0.63101834E-01  -.73208678E-01  -.62804278E-03
0.77549713E-01  0.63100874E-01  -.73699042E-01  -.63678344E-03
0.77831429E-01  0.63099942E-01  -.74190678E-01  -.64561106E-03
0.78113140E-01  0.63099036E-01  -.74683580E-01  -.65452614E-03
0.78394849E-01  0.63098156E-01  -.75177750E-01  -.66352918E-03
0.78676553E-01  0.63097298E-01  -.75673180E-01  -.67262072E-03
0.78958254E-01  0.63096462E-01  -.76169870E-01  -.68180126E-03
0.79239952E-01  0.63095648E-01  -.76667816E-01  -.69107130E-03
0.79521646E-01  0.63094850E-01  -.77167016E-01  -.70043136E-03
0.79803336E-01  0.63094070E-01  -.77667466E-01  -.70988196E-03
0.80085022E-01  0.63093306E-01  -.78169162E-01  -.71942360E-03
0.80366706E-01  0.63092556E-01  -.78672102E-01  -.72905680E-03
0.80648385E-01  0.63091818E-01  -.79176284E-01  -.73878210E-03
0.80930061E-01  0.63091092E-01  -.79681702E-01  -.74859996E-03
0.81211733E-01  0.63090376E-01  -.80188356E-01  -.75851094E-03
0.81493401E-01  0.63089668E-01  -.80696240E-01  -.76851554E-03
0.81775066E-01  0.63088968E-01  -.81205350E-01  -.77861426E-03
0.82056727E-01  0.63088272E-01  -.81715686E-01  -.78880764E-03
0.82338384E-01  0.63087584E-01  -.82227244E-01  -.79909618E-03
0.82620038E-01  0.63086898E-01  -.82740018E-01  -.80948040E-03
0.82901688E-01  0.63086216E-01  -.83254006E-01  -.81996080E-03
0.83183334E-01  0.63085536E-01  -.83769204E-01  -.83053792E-03
0.83464977E-01  0.63084858E-01  -.84285610E-01  -.84121224E-03
0.83746615E-01  0.63084180E-01  -.84803220E-01  -.85198432E-03
0.84028250E-01  0.63083502E-01  -.85322028E-01  -.86285462E-03
0.84309882E-01  0.63082824E-01  -.85842032E-01  -.87382370E-03
0.84591509E-01  0.63082146E-01  -.86363228E-01  -.88489206E-03
0.84873133E-01  0.63081466E-01  -.86885614E-01  -.89606020E-03
0.85154753E-01  0.63080786E-01  -.87409184E-01  -.90732864E-03
0.85436369E-01  0.63080102E-01  -.87933934E-01  -.91869790E-03
0.85717981E-01  0.63079418E-01  -.88459860E-01  -.93016850E-03
0.85999590E-01  0.63078734E-01  -.88986960E-01  -.94174094E-03
0.86281194E-01  0.63078044E-01  -.89515240E-01  -.95341584E-03
0.86562795E-01  0.63077348E-01  -.90044688E-01  -.96519364E-03
0.86844392E-01  0.63076646E-01  -.90575292E-01  -.97707480E-03
0.87125986E-01  0.63075942E-01  -.91107046E-01  -.98905976E-03
0.87407575E-01  0.63075234E-01  -.91639948E-01  -.10011491E-02
0.87689160E-01  0.63074528E-01  -.92173990E-01  -.10133432E-02
0.87970742E-01  0.63073824E-01  -.92709174E-01  -.10256427E-02
0.88252319E-01  0.63073126E-01  -.93245494E-01  -.10380481E-02
0.88533892E-01  0.63072434E-01  -.93782942E-01  -.10505599E-02
0.88815461E-01  0.63071750E-01  -.94321512E-01  -.10631785E-02
