Time,X-Force, Y-Force, Work integrand
0  0.032711702   0.0015598733   0   
0.00013889429  0.032715104   0.0015664214   1.5108619e-11   
0.00027772901  0.032721081   0.0015692208   1.0591058e-10   
0.00041655907  0.032724583   0.0015706515   2.8764923e-10   
0.00055539925  0.032726491   0.0015691657   5.5954151e-10   
0.00069424813  0.032726752   0.0015648067   9.1984287e-10   
0.00083310357  0.032725359   0.0015584059   1.3665264e-09   
0.00097196419  0.032722506   0.0015507042   1.8976072e-09   
0.0011108287  0.032718506   0.0015422052   2.5112028e-09   
0.0012496958  0.032713697   0.0015332333   3.2055335e-09   
0.001388564  0.032708399   0.0015239926   3.9789005e-09   
0.0015274317  0.032702892   0.0015146037   4.8296433e-09   
0.0016662978  0.03269741   0.0015051268   5.7560811e-09   
0.0018051612  0.032692146   0.0014955782   6.7564503e-09   
0.0019440212  0.032687255   0.001485945   7.8288516e-09   
0.0020828773  0.032682863   0.0014761972   8.9712163e-09   
0.0022217295  0.032679064   0.0014662974   1.0181294e-08   
0.0023605778  0.032675933   0.0014562083   1.1456659e-08   
0.0024994225  0.032673516   0.0014458978   1.2794736e-08   
0.0026382639  0.032671843   0.0014353417   1.419283e-08   
0.0027771026  0.03267092   0.0014245251   1.5648171e-08   
0.0029159389  0.032670737   0.0014134423   1.7157948e-08   
0.0030547733  0.032671268   0.0014020963   1.8719346e-08   
0.0031936062  0.032672473   0.0013904964   2.0329572e-08   
0.003332438  0.032674299   0.0013786563   2.1985861e-08   
0.003471269  0.032676686   0.0013665917   2.3685469e-08   
0.0036100995  0.032679566   0.0013543184   2.5425665e-08   
0.0037489296  0.032682868   0.001341851   2.7203714e-08   
0.0038877595  0.032686518   0.0013292021   2.9016847e-08   
0.0040265893  0.032690443   0.001316381   3.0862242e-08   
0.0041654191  0.032694573   0.001303394   3.2736995e-08   
0.0043042489  0.03269884   0.001290244   3.4638101e-08   
0.0044430787  0.032703181   0.0012769314   3.6562438e-08   
0.0045819086  0.03270754   0.0012634536   3.8506752e-08   
0.0047207385  0.032711867   0.0012498067   4.046766e-08   
0.0048595684  0.032716116   0.0012359851   4.2441643e-08   
0.0049983983  0.032720252   0.0012219828   4.4425056e-08   
0.0051372282  0.032724244   0.0012077933   4.6414134e-08   
0.0052760581  0.032728068   0.0011934104   4.8405001e-08   
0.0054148879  0.032731706   0.0011788288   5.03937e-08   
0.0055537177  0.032735146   0.0011640439   5.2376201e-08   
0.0056925474  0.032738382   0.0011490523   5.4348414e-08   
0.005831377  0.032741411   0.0011338521   5.6306216e-08   
0.0059702066  0.032744234   0.0011184426   5.8245477e-08   
0.0061090361  0.032746856   0.0011028247   6.0162061e-08   
0.0062478655  0.032749285   0.0010870004   6.2051828e-08   
0.0063866949  0.032751532   0.001070972   6.3910624e-08   
0.0065255241  0.032753607   0.0010547423   6.5734269e-08   
0.0066643533  0.032755525   0.0010383142   6.7518542e-08   
0.0068031823  0.032757298   0.0010216901   6.925917e-08   
0.0069420112  0.032758943   0.0010048721   7.0951814e-08   
0.0070808399  0.032760473   0.00098786196   7.2592052e-08   
0.0072196684  0.032761903   0.00097066061   7.4175371e-08   
0.0073584967  0.032763247   0.00095326846   7.5697155e-08   
0.0074973248  0.03276452   0.00093568534   7.7152682e-08   
0.0076361525  0.032765735   0.00091791051   7.8537115e-08   
0.00777498  0.032766903   0.00089994272   7.9845497e-08   
0.0079138071  0.032768038   0.00088178033   8.1072753e-08   
0.0080526338  0.032769147   0.00086342147   8.2213701e-08   
0.0081914601  0.032770243   0.00084486417   8.3263058e-08   
0.0083302859  0.032771331   0.00082610644   8.4215446e-08   
0.0084691113  0.032772421   0.00080714644   8.5065408e-08   
0.0086079361  0.032773517   0.00078798247   8.5807409e-08   
0.0087467604  0.032774625   0.00076861306   8.6435847e-08   
0.0088855841  0.03277575   0.00074903689   8.6945047e-08   
0.0090244071  0.032776894   0.00072925278   8.7329265e-08   
0.0091632296  0.03277806   0.00070925967   8.7582681e-08   
0.0093020514  0.032779249   0.00068905653   8.7699392e-08   
0.0094408725  0.032780463   0.00066864231   8.7673411e-08   
0.0095796928  0.032781703   0.0006480159   8.7498649e-08   
0.0097185125  0.032782967   0.00062717606   8.7168918e-08   
0.0098573313  0.032784255   0.00060612145   8.6677918e-08   
0.0099961494  0.032785568   0.00058485054   8.6019232e-08   
0.010134967  0.032786903   0.00056336167   8.5186321e-08   
0.010273783  0.032788259   0.00054165302   8.4172523e-08   
0.010412599  0.032789635   0.00051972261   8.297105e-08   
0.010551413  0.032791029   0.00049756838   8.1574986e-08   
0.010690227  0.03279244   0.00047518816   7.997729e-08   
0.01082904  0.032793866   0.0004525797   7.8170797e-08   
0.010967852  0.032795306   0.00042974076   7.6148218e-08   
0.011106663  0.032796756   0.00040666902   7.3902143e-08   
0.011245474  0.032798217   0.00038336219   7.1425041e-08   
0.011384283  0.032799686   0.00035981797   6.8709262e-08   
0.011523091  0.032801162   0.00033603408   6.5747034e-08   
0.011661898  0.032802643   0.00031200825   6.2530467e-08   
0.011800705  0.032804127   0.00028773821   5.9051545e-08   
0.01193951  0.032805614   0.00026322167   5.5302128e-08   
0.012078314  0.0328071   0.0002384564   5.1273952e-08   
0.012217118  0.032808585   0.00021344016   4.6958632e-08   
0.01235592  0.032810067   0.00018817074   4.2347659e-08   
0.012494722  0.032811544   0.00016264597   3.7432405e-08   
0.012633522  0.032813014   0.00013686374   3.2204121e-08   
0.012772322  0.032814476   0.00011082198   2.6653945e-08   
0.012911121  0.032815926   8.4518687e-05   2.07729e-08   
0.013049919  0.032817364   5.7951937e-05   1.4551896e-08   
0.013188716  0.032818786   3.111988e-05   7.981737e-09   
0.013327512  0.03282019   4.0207536e-06   1.0531192e-09   
0.013466307  0.032821574   -2.3347111e-05   -6.2433629e-09   
0.013605101  0.032822935   -5.0985281e-05   -1.3917214e-08   
0.013743895  0.03282427   -7.8895219e-05   -2.1978034e-08   
0.013882688  0.032825577   -0.00010707828   -3.0435515e-08   
0.01402148  0.032826852   -0.00013553569   -3.9299437e-08   
0.014160271  0.032828093   -0.00016426857   -4.8579667e-08   
0.014299062  0.032829297   -0.00019327793   -5.8286153e-08   
0.014437852  0.03283046   -0.00022256464   -6.8428919e-08   
0.014576641  0.032831581   -0.00025212946   -7.9018068e-08   
0.01471543  0.032832656   -0.00028197301   -9.0063767e-08   
0.014854218  0.032833682   -0.00031209578   -1.0157625e-07   
0.014993005  0.032834658   -0.00034249814   -1.1356582e-07   
0.015131792  0.032835581   -0.00037318029   -1.2604282e-07   
0.015270578  0.032836449   -0.00040414231   -1.3901764e-07   
0.015409364  0.03283726   -0.0004353841   -1.5250073e-07   
0.015548149  0.032838013   -0.00046690544   -1.6650256e-07   
0.015686933  0.032838707   -0.00049870594   -1.8103364e-07   
0.015825717  0.032839341   -0.00053078503   -1.9610449e-07   
0.0159645  0.032839915   -0.000563142   -2.1172567e-07   
0.016103282  0.03284043   -0.00059577596   -2.2790771e-07   
0.016242064  0.032840886   -0.00062868585   -2.4466118e-07   
0.016380846  0.032841284   -0.00066187044   -2.6199664e-07   
0.016519626  0.032841626   -0.00069532833   -2.7992461e-07   
0.016658406  0.032841914   -0.00072905795   -2.9845563e-07   
0.016797185  0.032842152   -0.00076305758   -3.176002e-07   
0.016935963  0.032842341   -0.00079732536   -3.3736882e-07   
0.01707474  0.032842487   -0.00083185928   -3.5777195e-07   
0.017213517  0.032842593   -0.00086665725   -3.7882004e-07   
0.017352292  0.032842664   -0.00090171703   -4.0052353e-07   
0.017491066  0.032842705   -0.00093703634   -4.2289283e-07   
0.017629839  0.032842722   -0.0009726128   -4.4593835e-07   
0.01776861  0.03284272   -0.001008444   -4.6967049e-07   
0.017907381  0.032842707   -0.0010445275   -4.9409965e-07   
0.018046149  0.032842687   -0.0010808609   -5.1923624e-07   
0.018184916  0.03284267   -0.0011174416   -5.4509067e-07   
0.018323682  0.03284266   -0.0011542674   -5.7167341e-07   
0.018462445  0.032842666   -0.0011913358   -5.9899494e-07   
0.018601207  0.032842695   -0.0012286447   -6.2706577e-07   
0.018739967  0.032842755   -0.0012661916   -6.5589648e-07   
0.018878724  0.032842852   -0.0013039747   -6.8549768e-07   
0.01901748  0.032842994   -0.0013419916   -7.1588004e-07   
0.019156232  0.032843188   -0.0013802407   -7.4705433e-07   
0.019294983  0.032843441   -0.0014187199   -7.7903137e-07   
0.019433731  0.03284376   -0.0014574278   -8.1182211e-07   
0.019572476  0.03284415   -0.0014963627   -8.4543758e-07   
0.019711218  0.032844618   -0.0015355233   -8.798889e-07   
0.019849958  0.032845169   -0.0015749083   -9.1518732e-07   
0.019988695  0.032845807   -0.0016145165   -9.5134416e-07   
0.020127428  0.032846536   -0.001654347   -9.8837084e-07   
0.020266159  0.03284736   -0.0016943985   -1.0262789e-06   
0.020404887  0.032848282   -0.0017346704   -1.0650798e-06   
0.020543611  0.032849304   -0.0017751617   -1.1047854e-06   
0.020682333  0.032850426   -0.0018158715   -1.1454073e-06   
0.020821051  0.032851649   -0.0018567992   -1.1869573e-06   
0.020959766  0.032852972   -0.001897944   -1.2294474e-06   
0.021098479  0.032854395   -0.0019393051   -1.2728894e-06   
0.021237188  0.032855914   -0.0019808819   -1.3172953e-06   
0.021375894  0.032857525   -0.0020226735   -1.3626772e-06   
0.021514598  0.032859226   -0.0020646794   -1.4090471e-06   
0.021653298  0.03286101   -0.0021068986   -1.4564171e-06   
0.021791996  0.03286287   -0.0021493306   -1.5047994e-06   
0.021930692  0.032864801   -0.0021919744   -1.5542061e-06   
0.022069385  0.032866793   -0.0022348293   -1.6046494e-06   
0.022208075  0.032868837   -0.0022778943   -1.6561415e-06   
0.022346764  0.032870923   -0.0023211686   -1.7086947e-06   
0.022485451  0.032873041   -0.0023646512   -1.762321e-06   
0.022624136  0.032875178   -0.0024083412   -1.8170328e-06   
0.02276282  0.032877323   -0.0024522374   -1.8728423e-06   
0.022901502  0.032879462   -0.0024963387   -1.9297615e-06   
0.023040184  0.032881581   -0.0025406441   -1.9878029e-06   
0.023178864  0.032883667   -0.0025851525   -2.0469786e-06   
0.023317545  0.032885704   -0.0026298626   -2.107301e-06   
0.023456225  0.032887677   -0.0026747735   -2.1687822e-06   
0.023594905  0.032889572   -0.0027198838   -2.2314346e-06   
0.023733586  0.032891373   -0.0027651924   -2.2952706e-06   
0.023872268  0.032893063   -0.0028106983   -2.3603025e-06   
0.02401095  0.032894628   -0.0028564003   -2.4265428e-06   
0.024149634  0.032896052   -0.0029022973   -2.4940039e-06   
0.02428832  0.032897319   -0.0029483884   -2.5626984e-06   
0.024427007  0.032898416   -0.0029946727   -2.6326392e-06   
0.024565697  0.032899327   -0.0030411497   -2.7038392e-06   
0.024704389  0.03290004   -0.0030878187   -2.7763113e-06   
0.024843084  0.032900542   -0.0031346794   -2.8500691e-06   
0.024981782  0.032900822   -0.0031817315   -2.9251257e-06   
0.025120483  0.032900871   -0.0032289751   -3.001495e-06   
0.025259187  0.032900679   -0.0032764104   -3.079191e-06   
0.025397895  0.032900239   -0.0033240378   -3.158228e-06   
0.025536607  0.032899547   -0.003371858   -3.2386205e-06   
0.025675322  0.032898598   -0.0034198718   -3.3203834e-06   
0.025814042  0.032897389   -0.0034680801   -3.4035316e-06   
0.025952766  0.032895921   -0.003516484   -3.4880806e-06   
0.026091495  0.032894196   -0.0035650848   -3.5740458e-06   
0.026230228  0.032892215   -0.0036138837   -3.6614429e-06   
0.026368966  0.032889984   -0.0036628822   -3.7502878e-06   
0.026507708  0.032887511   -0.0037120816   -3.8405968e-06   
0.026646456  0.032884803   -0.0037614834   -3.9323859e-06   
0.026785208  0.032881872   -0.0038110893   -4.0256718e-06   
0.026923964  0.032878729   -0.0038609008   -4.120471e-06   
0.027062725  0.03287539   -0.0039109196   -4.2168003e-06   
0.027201491  0.032871869   -0.0039611474   -4.3146768e-06   
0.027340261  0.032868185   -0.0040115859   -4.4141176e-06   
0.027479034  0.032864358   -0.004062237   -4.5151401e-06   
0.027617812  0.032860408   -0.0041131028   -4.6177622e-06   
0.027756593  0.032856358   -0.0041641853   -4.7220018e-06   
0.027895377  0.032852234   -0.0042154869   -4.8278772e-06   
0.028034165  0.03284806   -0.0042670099   -4.9354071e-06   
0.028172954  0.032843866   -0.0043187569   -5.0446105e-06   
0.028311746  0.032839679   -0.0043707309   -5.155507e-06   
0.02845054  0.032835531   -0.0044229346   -5.2681162e-06   
0.028589334  0.032831452   -0.0044753713   -5.3824584e-06   
0.02872813  0.032827477   -0.0045280442   -5.4985542e-06   
0.028866926  0.03282364   -0.0045809567   -5.6164244e-06   
0.029005722  0.032819974   -0.0046341121   -5.7360902e-06   
0.029144516  0.032816516   -0.0046875139   -5.857573e-06   
0.02928331  0.032813303   -0.0047411656   -5.9808945e-06   
0.029422102  0.032810371   -0.0047950704   -6.1060763e-06   
0.029560892  0.032807757   -0.0048492314   -6.2331402e-06   
0.029699678  0.0328055   -0.004903652   -6.3621082e-06   
0.029838461  0.032803636   -0.0049583354   -6.4930028e-06   
0.02997724  0.032802203   -0.0050132848   -6.6258461e-06   
0.030116014  0.032801238   -0.0050685033   -6.7606608e-06   
0.030254783  0.032800777   -0.0051239936   -6.8974692e-06   
0.030393546  0.032800856   -0.0051797587   -7.0362939e-06   
0.030532303  0.032801511   -0.0052358012   -7.1771576e-06   
0.030671052  0.032802775   -0.0052921242   -7.3200836e-06   
0.030809794  0.032804682   -0.0053487307   -7.4650953e-06   
0.030948527  0.032807263   -0.0054056239   -7.6122167e-06   
0.031087252  0.032810549   -0.0054628069   -7.7614719e-06   
0.031225968  0.032814569   -0.0055202831   -7.9128855e-06   
0.031364674  0.03281935   -0.0055780558   -8.0664826e-06   
0.03150337  0.032824919   -0.0056361284   -8.2222883e-06   
0.031642055  0.032831298   -0.0056945044   -8.3803282e-06   
0.031780729  0.03283851   -0.0057531871   -8.5406282e-06   
0.031919391  0.032846575   -0.0058121801   -8.7032143e-06   
0.032058041  0.03285551   -0.0058714868   -8.8681129e-06   
0.03219668  0.032865331   -0.0059311102   -9.0353503e-06   
0.032335305  0.032876052   -0.0059910537   -9.2049529e-06   
0.032473918  0.032887684   -0.00605132   -9.3769471e-06   
0.032612518  0.032900235   -0.006111912   -9.5513594e-06   
0.032751104  0.032913712   -0.0061728322   -9.728216e-06   
0.032889677  0.032928118   -0.0062340827   -9.9075428e-06   
0.033028237  0.032943457   -0.0062956655   -1.0089366e-05   
0.033166782  0.032959727   -0.0063575822   -1.027371e-05   
0.033305313  0.032976926   -0.0064198341   -1.0460602e-05   
0.033443831  0.032995049   -0.0064824222   -1.0650065e-05   
0.033582334  0.033014088   -0.0065453473   -1.0842124e-05   
0.033720824  0.033034034   -0.0066086097   -1.1036804e-05   
0.033859299  0.033054875   -0.0066722097   -1.1234128e-05   
0.03399776  0.033076598   -0.006736147   -1.1434121e-05   
0.034136208  0.033099188   -0.0068004214   -1.1636805e-05   
0.034274641  0.033122626   -0.0068650324   -1.1842204e-05   
0.034413061  0.033146893   -0.0069299791   -1.205034e-05   
0.034551468  0.033171968   -0.0069952607   -1.2261236e-05   
0.034689861  0.033197827   -0.0070608761   -1.2474915e-05   
0.034828242  0.033224446   -0.0071268242   -1.2691399e-05   
0.034966609  0.033251797   -0.0071931038   -1.291071e-05   
0.035104964  0.033279853   -0.0072597138   -1.3132872e-05   
0.035243307  0.033308583   -0.0073266529   -1.3357905e-05   
0.035381639  0.033337955   -0.0073939198   -1.3585834e-05   
0.035519959  0.033367936   -0.0074615133   -1.3816679e-05   
0.035658268  0.033398492   -0.0075294321   -1.4050464e-05   
0.035796567  0.033429586   -0.0075976747   -1.4287212e-05   
0.035934855  0.033461181   -0.0076662398   -1.4526944e-05   
0.036073135  0.033493238   -0.0077351259   -1.4769682e-05   
0.036211405  0.033525717   -0.0078043315   -1.501545e-05   
0.036349667  0.033558577   -0.0078738549   -1.5264269e-05   
0.036487921  0.033591776   -0.0079436943   -1.5516161e-05   
0.036626168  0.033625269   -0.008013848   -1.5771148e-05   
0.036764408  0.033659013   -0.0080843137   -1.6029251e-05   
0.036902642  0.033692962   -0.0081550894   -1.6290491e-05   
0.037040871  0.03372707   -0.0082261727   -1.6554889e-05   
0.037179094  0.033761289   -0.0082975611   -1.6822467e-05   
0.037317314  0.033795572   -0.0083692521   -1.7093243e-05   
0.037455531  0.033829869   -0.0084412428   -1.7367238e-05   
0.037593744  0.033864131   -0.0085135301   -1.7644471e-05   
0.037731956  0.033898308   -0.0085861109   -1.7924961e-05   
0.037870166  0.033932351   -0.0086589816   -1.8208726e-05   
0.038008375  0.033966209   -0.0087321386   -1.8495784e-05   
0.038146585  0.033999833   -0.0088055764   -1.8786149e-05   
0.038284795  0.034033171   -0.0088792349   -1.9079717e-05   
0.038423007  0.034066175   -0.0089532215   -1.9376744e-05   
0.038561221  0.034098799   -0.0090275063   -1.9677191e-05   
0.038699437  0.034130996   -0.0091020853   -1.9981076e-05   
0.038837656  0.03416272   -0.0091769518   -2.0288411e-05   
0.038975879  0.034193928   -0.0092520939   -2.0599196e-05   
0.039114106  0.034224578   -0.0093274971   -2.0913424e-05   
0.039252339  0.034254626   -0.0094031466   -2.1231086e-05   
0.039390577  0.034284032   -0.0094790287   -2.1552178e-05   
0.039528823  0.034312756   -0.009555132   -2.1876695e-05   
0.039667076  0.034340761   -0.0096314471   -2.2204642e-05   
0.039805338  0.034368009   -0.0097079669   -2.2536025e-05   
0.039943609  0.034394467   -0.0097846862   -2.2870854e-05   
0.040081889  0.0344201   -0.0098616018   -2.3209146e-05   
0.04022018  0.034444878   -0.0099387118   -2.3550919e-05   
0.040358482  0.034468772   -0.010016016   -2.3896195e-05   
0.040496795  0.034491756   -0.010093516   -2.4245e-05   
0.040635121  0.034513806   -0.010171213   -2.4597362e-05   
0.040773458  0.034534899   -0.010249112   -2.4953314e-05   
0.040911809  0.034555017   -0.010327216   -2.5312889e-05   
0.041050172  0.034574144   -0.01040553   -2.5676122e-05   
0.041188549  0.034592266   -0.010484059   -2.6043047e-05   
0.04132694  0.034609371   -0.010562805   -2.6413695e-05   
0.041465344  0.034625449   -0.010641769   -2.6788093e-05   
0.041603762  0.034640494   -0.010720947   -2.7166257e-05   
0.041742195  0.034654501   -0.010800332   -2.7548188e-05   
0.041880641  0.034667467   -0.01087991   -2.7933878e-05   
0.042019102  0.034679389   -0.010959664   -2.8323307e-05   
0.042157578  0.034690268   -0.011039578   -2.8716453e-05   
0.042296068  0.034700104   -0.011119636   -2.9113296e-05   
0.042434572  0.034708899   -0.011199823   -2.9513819e-05   
0.042573092  0.034716658   -0.011280128   -2.9918013e-05   
0.042711626  0.034723385   -0.011360541   -3.0325871e-05   
0.042850175  0.034729084   -0.011441058   -3.0737397e-05   
0.042988739  0.034733762   -0.011521673   -3.1152601e-05   
0.043127318  0.034737426   -0.011602387   -3.1571498e-05   
0.043265911  0.034740085   -0.0116832   -3.199411e-05   
0.043404519  0.034741748   -0.011764115   -3.2420464e-05   
0.043543142  0.034742426   -0.011845136   -3.2850589e-05   
0.043681778  0.034742129   -0.011926268   -3.3284515e-05   
0.043820429  0.034740873   -0.012007514   -3.3722275e-05   
0.043959094  0.034738671   -0.01208888   -3.41639e-05   
0.044097771  0.034735539   -0.012170369   -3.4609421e-05   
0.044236463  0.034731495   -0.012251984   -3.5058868e-05   
0.044375166  0.034726557   -0.01233373   -3.5512269e-05   
0.044513883  0.034720746   -0.012415607   -3.5969652e-05   
0.044652612  0.034714083   -0.012497618   -3.6431041e-05   
0.044791352  0.03470659   -0.012579765   -3.6896463e-05   
0.044930104  0.034698292   -0.012662049   -3.736594e-05   
0.045068866  0.034689214   -0.012744471   -3.7839497e-05   
0.045207639  0.034679381   -0.012827031   -3.8317157e-05   
0.045346423  0.03466882   -0.012909732   -3.8798945e-05   
0.045485216  0.03465756   -0.012992574   -3.9284883e-05   
0.045624018  0.034645627   -0.013075559   -3.9774999e-05   
0.045762829  0.034633052   -0.013158688   -4.0269316e-05   
