Time,X-Force, Y-Force, Work integrand
0  0.032711702   0.0015598733   0   
0.00013889429  0.032715104   0.001566472   -1.2979535e-10   
0.00027772901  0.032721081   0.0015696002   -9.0804859e-10   
0.00041655907  0.032724583   0.001571812   -2.4625173e-09   
0.00055539925  0.032726491   0.0015716964   -4.7826551e-09   
0.00069424812  0.032726752   0.0015694185   -7.8512306e-09   
0.00083310356  0.032725358   0.001565917   -1.1653504e-08   
0.00097196417  0.032722505   0.0015620262   -1.6182878e-08   
0.0011108287  0.032718504   0.0015583297   -2.1442263e-08   
0.0012496957  0.032713695   0.0015552194   -2.7443442e-08   
0.0013885638  0.032708396   0.001552955   -3.4207654e-08   
0.0015274315  0.032702889   0.0015517017   -4.1763817e-08   
0.0016662975  0.032697406   0.001551554   -5.0148643e-08   
0.0018051607  0.032692141   0.0015525532   -5.9404593e-08   
0.0019440204  0.03268725   0.0015547032   -6.9579314e-08   
0.0020828763  0.032682856   0.0015579836   -8.0724898e-08   
0.0022217281  0.032679057   0.0015623601   -9.2896744e-08   
0.002360576  0.032675925   0.0015677936   -1.0615405e-07   
0.0024994202  0.032673508   0.0015742456   -1.2055936e-07   
0.002638261  0.032671833   0.001581682   -1.3617891e-07   
0.002777099  0.03267091   0.0015900755   -1.5308347e-07   
0.0029159344  0.032670727   0.0015994057   -1.7134731e-07   
0.0030547679  0.032671257   0.0016096596   -1.9105088e-07   
0.0031935997  0.032672461   0.0016208297   -2.1227819e-07   
0.0033324303  0.032674287   0.0016329124   -2.3511949e-07   
0.0034712598  0.032676674   0.0016459063   -2.5966897e-07   
0.0036100887  0.032679554   0.0016598104   -2.860265e-07   
0.003748917  0.032682855   0.0016746233   -3.1429647e-07   
0.0038877449  0.032686506   0.0016903421   -3.4458711e-07   
0.0040265725  0.032690431   0.0017069622   -3.7701094e-07   
0.0041653998  0.032694562   0.0017244765   -4.11684e-07   
0.0043042269  0.03269883   0.0017428765   -4.4872649e-07   
0.0044430538  0.032703172   0.0017621516   -4.8826058e-07   
0.0045818805  0.032707533   0.0017822903   -5.3041338e-07   
0.0047207069  0.032711861   0.0018032805   -5.7531423e-07   
0.004859533  0.032716112   0.0018251099   -6.2309534e-07   
0.0049983588  0.03272025   0.0018477668   -6.7389378e-07   
0.0051371843  0.032724244   0.0018712402   -7.2784865e-07   
0.0052760094  0.03272807   0.0018955203   -7.8510389e-07   
0.0054148342  0.03273171   0.0019205992   -8.4580686e-07   
0.0055536585  0.032735153   0.0019464707   -9.101098e-07   
0.0056924824  0.032738392   0.0019731304   -9.7816893e-07   
0.0058313059  0.032741423   0.0020005758   -1.050145e-06   
0.0059701289  0.032744249   0.0020288065   -1.126205e-06   
0.0061089514  0.032746875   0.0020578238   -1.20652e-06   
0.0062477734  0.032749308   0.0020876305   -1.2912664e-06   
0.0063865949  0.032751557   0.0021182299   -1.3806262e-06   
0.0065254159  0.032753636   0.0021496259   -1.4747855e-06   
0.0066642363  0.032755557   0.0021818225   -1.5739347e-06   
0.0068030561  0.032757334   0.0022148232   -1.6782696e-06   
0.0069418753  0.032758982   0.0022486314   -1.7879887e-06   
0.0070806939  0.032760516   0.0022832494   -1.9032954e-06   
0.0072195117  0.032761949   0.002318679   -2.0243961e-06   
0.0073583287  0.032763298   0.0023549212   -2.1515006e-06   
0.007497145  0.032764574   0.0023919761   -2.2848224e-06   
0.0076359604  0.032765793   0.0024298431   -2.4245782e-06   
0.0077747749  0.032766965   0.0024685207   -2.5709872e-06   
0.0079135885  0.032768104   0.002508007   -2.7242723e-06   
0.0080524011  0.032769218   0.0025482996   -2.8846594e-06   
0.0081912127  0.032770317   0.002589396   -3.052378e-06   
0.0083300232  0.03277141   0.0026312934   -3.2276603e-06   
0.0084688325  0.032772503   0.002673989   -3.4107425e-06   
0.0086076407  0.032773604   0.0027174801   -3.6018644e-06   
0.0087464476  0.032774716   0.0027617639   -3.8012686e-06   
0.0088852532  0.032775845   0.0028068378   -4.0092024e-06   
0.0090240576  0.032776994   0.0028526994   -4.2259154e-06   
0.0091628606  0.032778164   0.002899346   -4.4516612e-06   
0.0093016621  0.032779358   0.002946775   -4.6866963e-06   
0.0094404622  0.032780577   0.0029949839   -4.9312804e-06   
0.0095792609  0.032781821   0.0030439699   -5.1856763e-06   
0.009718058  0.03278309   0.0030937301   -5.4501488e-06   
0.0098568535  0.032784384   0.0031442613   -5.7249661e-06   
0.0099956474  0.032785701   0.0031955606   -6.0103985e-06   
0.01013444  0.032787041   0.0032476243   -6.3067193e-06   
0.01027323  0.032788403   0.0033004492   -6.614203e-06   
0.010412019  0.032789784   0.0033540314   -6.9331272e-06   
0.010550806  0.032791184   0.0034083674   -7.2637712e-06   
0.010689592  0.032792601   0.0034634532   -7.6064178e-06   
0.010828375  0.032794033   0.0035192852   -7.9613503e-06   
0.010967157  0.032795479   0.0035758595   -8.3288552e-06   
0.011105937  0.032796936   0.0036331723   -8.7092221e-06   
0.011244714  0.032798403   0.0036912199   -9.1027411e-06   
0.01138349  0.032799879   0.0037499984   -9.5097057e-06   
0.011522264  0.032801362   0.0038095043   -9.9304119e-06   
0.011661036  0.03280285   0.0038697339   -1.0365157e-05   
0.011799806  0.032804342   0.0039306835   -1.0814243e-05   
0.011938574  0.032805835   0.0039923495   -1.1277971e-05   
0.01207734  0.03280733   0.0040547285   -1.1756646e-05   
0.012216104  0.032808823   0.0041178168   -1.2250576e-05   
0.012354866  0.032810313   0.0041816111   -1.2760071e-05   
0.012493626  0.032811798   0.0042461079   -1.3285443e-05   
0.012632383  0.032813277   0.0043113039   -1.3827008e-05   
0.012771139  0.032814747   0.0043771958   -1.4385082e-05   
0.012909893  0.032816207   0.0044437804   -1.4959986e-05   
0.013048644  0.032817654   0.0045110545   -1.5552042e-05   
0.013187393  0.032819085   0.004579015   -1.6161576e-05   
0.013326141  0.0328205   0.0046476589   -1.6788915e-05   
0.013464886  0.032821894   0.0047169833   -1.7434391e-05   
0.013603629  0.032823265   0.0047869852   -1.8098336e-05   
0.01374237  0.032824611   0.0048576618   -1.8781086e-05   
0.013881109  0.032825928   0.0049290104   -1.9482979e-05   
0.014019846  0.032827215   0.0050010283   -2.0204357e-05   
0.014158581  0.032828467   0.0050737129   -2.0945562e-05   
0.014297313  0.032829683   0.0051470619   -2.1706941e-05   
0.014436044  0.032830859   0.0052210727   -2.2488844e-05   
0.014574773  0.032831992   0.0052957432   -2.3291621e-05   
0.014713499  0.03283308   0.0053710712   -2.4115625e-05   
0.014852224  0.03283412   0.0054470547   -2.4961214e-05   
0.014990946  0.03283511   0.0055236918   -2.5828747e-05   
0.015129667  0.032836047   0.0056009807   -2.6718584e-05   
0.015268385  0.03283693   0.00567892   -2.7631089e-05   
0.015407101  0.032837756   0.0057575083   -2.8566629e-05   
0.015545815  0.032838525   0.0058367442   -2.9525574e-05   
0.015684527  0.032839236   0.0059166269   -3.0508294e-05   
0.015823237  0.032839887   0.0059971554   -3.1515163e-05   
0.015961945  0.032840478   0.0060783292   -3.254656e-05   
0.01610065  0.032841011   0.0061601479   -3.3602862e-05   
0.016239354  0.032841485   0.0062426113   -3.4684453e-05   
0.016378055  0.032841902   0.0063257196   -3.5791717e-05   
0.016516753  0.032842264   0.0064094729   -3.6925042e-05   
0.016655449  0.032842572   0.0064938718   -3.8084819e-05   
0.016794143  0.032842829   0.0065789169   -3.927144e-05   
0.016932834  0.03284304   0.0066646093   -4.0485301e-05   
0.017071522  0.032843206   0.0067509499   -4.1726802e-05   
0.017210208  0.032843334   0.0068379399   -4.2996343e-05   
0.017348891  0.032843426   0.0069255809   -4.4294328e-05   
0.017487571  0.032843489   0.0070138747   -4.5621168e-05   
0.017626248  0.032843528   0.0071028223   -4.6977266e-05   
0.017764922  0.032843548   0.007192425   -4.8363033e-05   
0.017903593  0.032843556   0.0072826843   -4.9778879e-05   
0.01804226  0.032843559   0.0073736015   -5.1225219e-05   
0.018180924  0.032843563   0.0074651779   -5.2702467e-05   
0.018319584  0.032843575   0.0075574147   -5.421104e-05   
0.018458241  0.032843602   0.0076503134   -5.5751358e-05   
0.018596894  0.032843652   0.0077438751   -5.7323841e-05   
0.018735543  0.032843732   0.0078381012   -5.8928913e-05   
0.018874187  0.03284385   0.0079329929   -6.0566998e-05   
0.019012828  0.032844012   0.0080285514   -6.2238526e-05   
0.019151464  0.032844226   0.0081247778   -6.3943926e-05   
0.019290096  0.032844497   0.0082216732   -6.5683627e-05   
0.019428723  0.032844834   0.0083192383   -6.7458063e-05   
0.019567346  0.032845242   0.008417474   -6.9267669e-05   
0.019705964  0.032845727   0.0085163807   -7.1112878e-05   
0.019844577  0.032846293   0.0086159589   -7.2994128e-05   
0.019983185  0.032846947   0.008716209   -7.4911859e-05   
0.020121788  0.032847691   0.0088171312   -7.686651e-05   
0.020260386  0.032848529   0.0089187255   -7.8858523e-05   
0.020398979  0.032849465   0.0090209921   -8.0888344e-05   
0.020537566  0.032850499   0.009123931   -8.2956419e-05   
0.020676149  0.032851633   0.0092275423   -8.5063197e-05   
0.020814726  0.032852867   0.0093318259   -8.7209131e-05   
0.020953298  0.032854201   0.0094367818   -8.9394674e-05   
0.021091865  0.032855633   0.00954241   -9.1620283e-05   
0.021230426  0.032857162   0.0096487105   -9.3886419e-05   
0.021368983  0.032858782   0.0097556833   -9.6193545e-05   
0.021507535  0.032860491   0.0098633284   -9.8542124e-05   
0.021646081  0.032862283   0.0099716458   -0.00010093263   
0.021784623  0.032864151   0.010080636   -0.00010336552   
0.02192316  0.032866088   0.010190298   -0.00010584129   
0.022061692  0.032868087   0.010300633   -0.00010836039   
0.02220022  0.032870138   0.01041164   -0.00011092332   
0.022338744  0.032872231   0.01052332   -0.00011353055   
0.022477263  0.032874356   0.010635672   -0.00011618257   
0.022615778  0.032876501   0.010748697   -0.00011887986   
0.02275429  0.032878654   0.010862394   -0.0001216229   
0.022892798  0.032880801   0.010976763   -0.00012441219   
0.023031303  0.03288293   0.011091804   -0.00012724822   
0.023169805  0.032885027   0.011207517   -0.00013013147   
0.023308304  0.032887077   0.0113239   -0.00013306243   
0.0234468  0.032889066   0.011440954   -0.0001360416   
0.023585295  0.032890978   0.011558677   -0.00013906946   
0.023723787  0.032892799   0.011677068   -0.00014214651   
0.023862277  0.032894512   0.011796127   -0.00014527323   
0.024000766  0.032896101   0.011915859   -0.0001484502   
0.024139254  0.032897549   0.012036258   -0.00015167785   
0.024277741  0.032898842   0.012157322   -0.00015495667   
0.024416227  0.032899966   0.012279048   -0.00015828712   
0.024554712  0.032900909   0.01240143   -0.00016166966   
0.024693198  0.032901659   0.012524466   -0.00016510474   
0.024831683  0.032902205   0.012648149   -0.0001685928   
0.024970169  0.032902537   0.012772474   -0.00017213429   
0.025108654  0.032902646   0.012897436   -0.00017572963   
0.025247141  0.032902523   0.013023029   -0.00017937927   
0.025385628  0.032902162   0.013149249   -0.00018308366   
0.025524116  0.032901556   0.013276093   -0.00018684325   
0.025662605  0.032900701   0.013403559   -0.00019065852   
0.025801095  0.032899595   0.013531645   -0.00019452995   
0.025939587  0.032898235   0.013660349   -0.00019845801   
0.02607808  0.032896624   0.013789671   -0.00020244319   
0.026216574  0.032894764   0.013919609   -0.00020648598   
0.026355069  0.032892657   0.014050163   -0.00021058687   
0.026493566  0.032890312   0.014181331   -0.00021474635   
0.026632065  0.032887735   0.014313113   -0.0002189649   
0.026770564  0.032884937   0.014445507   -0.00022324302   
0.026909065  0.032881929   0.014578513   -0.00022758119   
0.027047567  0.032878725   0.01471213   -0.00023197991   
0.027186069  0.03287534   0.014846356   -0.00023643965   
0.027324573  0.032871793   0.014981192   -0.00024096091   
0.027463077  0.032868101   0.015116635   -0.00024554418   
0.027601581  0.032864287   0.01525268   -0.00025018989   
0.027740084  0.03286037   0.015389321   -0.00025489842   
0.027878588  0.032856377   0.015526561   -0.00025967034   
0.028017091  0.032852333   0.015664402   -0.0002645062   
0.028155593  0.032848266   0.01580285   -0.00026940654   
0.028294093  0.032844205   0.015941905   -0.00027437192   
0.028432591  0.032840181   0.016081573   -0.00027940293   
0.028571087  0.032836225   0.016221855   -0.00028450007   
0.028709581  0.032832371   0.016362751   -0.00028966388   
0.028848071  0.032828652   0.016504258   -0.00029489485   
0.028986558  0.032825103   0.016646376   -0.00030019344   
0.02912504  0.032821759   0.016789099   -0.0003055601   
0.029263518  0.032818657   0.016932424   -0.00031099529   
0.02940199  0.032815832   0.017076344   -0.00031649941   
0.029540457  0.032813323   0.017220854   -0.00032207286   
0.029678918  0.032811165   0.017365945   -0.00032771605   
0.029817371  0.032809395   0.017511612   -0.00033342933   
0.029955817  0.032808051   0.017657844   -0.00033921308   
0.030094255  0.032807168   0.017804635   -0.00034506764   
0.030232685  0.032806783   0.017951974   -0.00035099334   
0.030371105  0.032806931   0.018099852   -0.00035699053   
0.030509516  0.032807648   0.018248259   -0.00036305951   
0.030647917  0.032808966   0.018397188   -0.00036920061   
0.030786307  0.032810918   0.018546627   -0.00037541414   
0.030924685  0.032813537   0.018696568   -0.0003817004   
0.031063052  0.032816849   0.018846964   -0.00038805899   
0.031201407  0.032820883   0.018997823   -0.00039449053   
0.031339749  0.032825666   0.019149147   -0.00040099551   
0.031478077  0.032831226   0.019300944   -0.00040757452   
0.031616392  0.032837586   0.019453222   -0.00041422821   
0.031754694  0.03284477   0.019605991   -0.00042095724   
0.03189298  0.032852799   0.019759261   -0.00042776225   
0.032031253  0.032861691   0.019913037   -0.00043464385   
0.03216951  0.032871463   0.020067325   -0.00044160262   
0.032307752  0.032882128   0.020222128   -0.00044863912   
0.032445979  0.032893698   0.020377447   -0.00045575385   
0.032584189  0.032906183   0.02053328   -0.00046294729   
0.032722384  0.03291959   0.020689627   -0.0004702199   
0.032860563  0.032933924   0.020846485   -0.00047757209   
0.032998726  0.032949185   0.021003848   -0.00048500429   
0.033136873  0.032965375   0.021161715   -0.00049251689   
0.033275003  0.032982491   0.021320079   -0.00050011027   
0.033413117  0.033000527   0.021478935   -0.00050778482   
0.033551214  0.033019477   0.021638279   -0.00051554092   
0.033689295  0.033039332   0.021798106   -0.00052337893   
0.03382736  0.033060079   0.021958411   -0.00053129924   
0.033965408  0.033081706   0.02211919   -0.00053930222   
0.034103441  0.033104196   0.022280438   -0.00054738826   
0.034241457  0.033127533   0.022442152   -0.00055555775   
0.034379457  0.033151696   0.022604328   -0.00056381108   
0.034517442  0.033176664   0.022766964   -0.00057214867   
0.034655411  0.033202414   0.022930057   -0.00058057092   
0.034793366  0.03322892   0.023093604   -0.00058907827   
0.034931305  0.033256156   0.023257604   -0.00059767113   
0.03506923  0.033284093   0.023422055   -0.00060634993   
0.035207141  0.0333127   0.023586956   -0.00061511513   
0.035345037  0.033341946   0.023752305   -0.00062396715   
0.035482921  0.033371798   0.023918101   -0.00063290645   
0.035620791  0.033402219   0.024084344   -0.00064193348   
0.035758649  0.033433175   0.024251032   -0.0006510487   
0.035896495  0.033464626   0.024418166   -0.00066025258   
0.03603433  0.033496534   0.024585746   -0.00066954559   
0.036172153  0.03352886   0.024753771   -0.00067892821   
0.036309966  0.03356156   0.024922243   -0.00068840095   
0.036447769  0.033594593   0.025091161   -0.00069796429   
0.036585563  0.033627915   0.025260527   -0.00070761875   
0.036723348  0.033661483   0.025430343   -0.00071736484   
0.036861125  0.03369525   0.025600609   -0.0007272031   
0.036998894  0.033729173   0.025771326   -0.00073713402   
0.037136657  0.033763204   0.025942494   -0.00074715806   
0.037274414  0.033797298   0.026114117   -0.00075727587   
0.037412165  0.033831408   0.026286198   -0.00076748802   
0.037549911  0.033865488   0.026458742   -0.0007777951   
0.037687654  0.033899489   0.02663175   -0.00078819769   
0.037825392  0.033933366   0.026805225   -0.00079869635   
0.037963129  0.03396707   0.026979168   -0.00080929164   
0.038100863  0.034000554   0.02715358   -0.00081998409   
0.038238595  0.034033772   0.027328461   -0.00083077423   
0.038376327  0.034066678   0.027503812   -0.00084166257   
0.038514059  0.034099225   0.027679632   -0.00085264963   
0.038651791  0.03413137   0.027855921   -0.00086373592   
0.038789524  0.034163068   0.02803268   -0.00087492197   
0.03892726  0.034194277   0.028209908   -0.0008862083   
0.039064997  0.034224957   0.028387606   -0.00089759549   
0.039202738  0.034255068   0.028565777   -0.00090908409   
0.039340482  0.034284572   0.028744423   -0.0009206747   
0.039478231  0.034313432   0.028923582   -0.00093236904   
0.039615984  0.034341614   0.029103263   -0.00094416789   
0.039753741  0.03436909   0.029283401   -0.00095606985   
0.039891504  0.034395825   0.029463966   -0.00096807457   
0.040029272  0.034421793   0.029644936   -0.00098018184   
0.040167047  0.034446963   0.029826303   -0.00099239189   
0.040304827  0.03447131   0.030008059   -0.001004705   
0.040442615  0.034494809   0.030190209   -0.0010171217   
0.040580411  0.034517437   0.030372769   -0.0010296431   
0.040718215  0.034539172   0.030555763   -0.0010422704   
0.040856027  0.034559991   0.03073922   -0.001055005   
0.040993847  0.034579876   0.03092317   -0.0010678484   
0.041131677  0.034598808   0.031107643   -0.0010808021   
0.041269516  0.03461677   0.031292664   -0.0010938674   
0.041407365  0.034633747   0.031478255   -0.0011070457   
0.041545223  0.034649724   0.031664428   -0.001120338   
0.041683091  0.03466469   0.031851193   -0.0011337451   
0.041820968  0.034678634   0.03203855   -0.0011472678   
0.041958855  0.034691549   0.032226494   -0.0011609063   
0.042096753  0.034703429   0.032415016   -0.001174661   
0.042234659  0.034714266   0.032604061   -0.0011885307   
0.042372575  0.034724049   0.032793526   -0.0012025124   
0.042510501  0.034732783   0.032983457   -0.0012166081   
0.042648436  0.03474047   0.033173878   -0.0012308192   
0.04278638  0.034747118   0.033364816   -0.0012451471   
0.042924332  0.034752737   0.033556287   -0.001259593   
0.043062294  0.034757336   0.03374831   -0.0012741581   
0.043200264  0.034760897   0.033940995   -0.0012888467   
0.043338242  0.034763445   0.034134316   -0.0013036586   
0.043476229  0.034765007   0.034328232   -0.001318593   
0.043614224  0.034765607   0.034522714   -0.0013336494   
0.043752227  0.034765266   0.03471774   -0.0013488276   
0.043890238  0.034764002   0.034913291   -0.0013641275   
0.044028256  0.034761832   0.035109347   -0.0013795488   
0.044166281  0.034758773   0.035305893   -0.0013950915   
0.044304313  0.034754841   0.035502917   -0.0014107557   
0.044442352  0.034750052   0.035700412   -0.0014265415   
0.044580397  0.034744424   0.035898376   -0.0014424495   
0.044718447  0.034737975   0.036096814   -0.0014584803   
0.044856503  0.034730725   0.036295731   -0.0014746346   
0.044994564  0.034722696   0.036495134   -0.0014909131   
0.04513263  0.034713907   0.036695019   -0.0015073162   
0.0452707  0.034704377   0.036895334   -0.0015238422   
0.045408774  0.034694105   0.037095822   -0.0015404818   
0.045546851  0.034683127   0.03729663   -0.0015572409   
0.045684931  0.034671474   0.037497832   -0.0015741226   
0.045823014  0.034659169   0.037699597   -0.0015911342   
0.045961099  0.034646227   0.037901819   -0.0016082719   
0.046099185  0.034632708   0.038104534   -0.0016255375   
0.046237273  0.034618669   0.038307852   -0.0016429361   
0.04637536  0.034604149   0.038511853   -0.0016604712   
0.046513448  0.034589178   0.038716564   -0.0016781447   
