 Time,X-Force, Y-Force, Work integrand
0.00000000E+00  0.67680350E-01  0.32386472E-03  0.00000000E+00
0.58335747E-03  0.67804702E-01  0.32523610E-03  0.12626765E-09
0.11662250E-02  0.67866146E-01  0.33060620E-03  0.76319844E-09
0.17490254E-02  0.67897430E-01  0.34785500E-03  0.11219300E-08
0.23318687E-02  0.67905358E-01  0.37939390E-03  -.11402895E-08
0.29147830E-02  0.67892808E-01  0.42814726E-03  -.10292704E-07
0.34977814E-02  0.67861746E-01  0.49725090E-03  -.33044328E-07
0.40808736E-02  0.67815208E-01  0.58947176E-03  -.78903386E-07
0.46640647E-02  0.67757188E-01  0.70707144E-03  -.16039965E-06
0.52473543E-02  0.67692030E-01  0.85184170E-03  -.29320028E-06
0.58307353E-02  0.67623886E-01  0.10251580E-02  -.49614354E-06
0.64141951E-02  0.67556364E-01  0.12280316E-02  -.79119876E-06
0.69977169E-02  0.67492404E-01  0.14611627E-02  -.12033779E-05
0.75812815E-02  0.67434240E-01  0.17249921E-02  -.17606076E-05
0.81648690E-02  0.67383472E-01  0.20197514E-02  -.24935908E-05
0.87484609E-02  0.67341124E-01  0.23455034E-02  -.34356464E-05
0.93320411E-02  0.67307734E-01  0.27021630E-02  -.46225332E-05
0.99155969E-02  0.67283428E-01  0.30895126E-02  -.60922456E-05
0.10499119E-01  0.67267968E-01  0.35072084E-02  -.78847962E-05
0.11082603E-01  0.67260822E-01  0.39547876E-02  -.10041978E-04
0.11666046E-01  0.67261216E-01  0.44316792E-02  -.12607135E-04
0.12249448E-01  0.67268188E-01  0.49372272E-02  -.15624965E-04
0.12832810E-01  0.67280640E-01  0.54707154E-02  -.19141349E-04
0.13416135E-01  0.67297392E-01  0.60314022E-02  -.23203260E-04
0.13999427E-01  0.67317236E-01  0.66185516E-02  -.27858700E-04
0.14582688E-01  0.67338972E-01  0.72314606E-02  -.33156702E-04
0.15165922E-01  0.67361450E-01  0.78694838E-02  -.39147366E-04
0.15749130E-01  0.67383604E-01  0.85320506E-02  -.45881928E-04
0.16332316E-01  0.67404480E-01  0.92186742E-02  -.53412840E-04
0.16915482E-01  0.67423256E-01  0.99289534E-02  -.61793844E-04
0.17498627E-01  0.67439262E-01  0.10662568E-01  -.71080032E-04
0.18081752E-01  0.67451980E-01  0.11419265E-01  -.81327850E-04
0.18664858E-01  0.67461058E-01  0.12198846E-01  -.92595104E-04
0.19247942E-01  0.67466298E-01  0.13001152E-01  -.10494090E-03
0.19831005E-01  0.67467656E-01  0.13826043E-01  -.11842554E-03
0.20414044E-01  0.67465216E-01  0.14673384E-01  -.13311042E-03
0.20997058E-01  0.67459184E-01  0.15543009E-01  -.14905769E-03
0.21580044E-01  0.67449860E-01  0.16434709E-01  -.16633003E-03
0.22163000E-01  0.67437628E-01  0.17348283E-01  -.18499094E-03
0.22745924E-01  0.67422922E-01  0.18283517E-01  -.20510454E-03
0.23328813E-01  0.67406218E-01  0.19240195E-01  -.22673558E-03
0.23911665E-01  0.67388012E-01  0.20218112E-01  -.24994952E-03
0.24494477E-01  0.67368790E-01  0.21217084E-01  -.27481258E-03
0.25077248E-01  0.67349022E-01  0.22236948E-01  -.30139178E-03
0.25659974E-01  0.67329148E-01  0.23277564E-01  -.32975506E-03
0.26242654E-01  0.67309550E-01  0.24338790E-01  -.35997090E-03
0.26825286E-01  0.67290554E-01  0.25420466E-01  -.39210828E-03
0.27407868E-01  0.67272422E-01  0.26522428E-01  -.42623670E-03
0.27990397E-01  0.67255350E-01  0.27644520E-01  -.46242634E-03
0.28572871E-01  0.67239474E-01  0.28786588E-01  -.50074804E-03
0.29155289E-01  0.67224878E-01  0.29948498E-01  -.54127346E-03
0.29737647E-01  0.67211588E-01  0.31130132E-01  -.58407496E-03
0.30319945E-01  0.67199592E-01  0.32331400E-01  -.62922576E-03
0.30902178E-01  0.67188848E-01  0.33552244E-01  -.67679982E-03
0.31484346E-01  0.67179286E-01  0.34792652E-01  -.72687192E-03
0.32066446E-01  0.67170826E-01  0.36052654E-01  -.77951764E-03
0.32648474E-01  0.67163378E-01  0.37332326E-01  -.83481332E-03
0.33230430E-01  0.67156856E-01  0.38631774E-01  -.89283584E-03
0.33812309E-01  0.67151174E-01  0.39951138E-01  -.95366246E-03
0.34394110E-01  0.67146258E-01  0.41290558E-01  -.10173705E-02
0.34975829E-01  0.67142038E-01  0.42650156E-01  -.10840366E-02
0.35557465E-01  0.67138448E-01  0.44030018E-01  -.11537368E-02
0.36139014E-01  0.67135432E-01  0.45430178E-01  -.12265456E-02
0.36720474E-01  0.67132936E-01  0.46850602E-01  -.13025357E-02
0.37301842E-01  0.67130912E-01  0.48291196E-01  -.13817782E-02
0.37883115E-01  0.67129314E-01  0.49751808E-01  -.14643426E-02
0.38464292E-01  0.67128100E-01  0.51232234E-01  -.15502965E-02
0.39045369E-01  0.67127214E-01  0.52732312E-01  -.16397086E-02
0.39626345E-01  0.67126536E-01  0.54251956E-01  -.17326497E-02
0.40207215E-01  0.67125918E-01  0.55790382E-01  -.18291697E-02
0.40787977E-01  0.67125286E-01  0.57347046E-01  -.19293245E-02
0.41368625E-01  0.67124620E-01  0.58921726E-01  -.20331784E-02
0.41949154E-01  0.67123942E-01  0.60514266E-01  -.21407984E-02
0.42529559E-01  0.67123302E-01  0.62124466E-01  -.22522492E-02
0.43109835E-01  0.67122756E-01  0.63752084E-01  -.23675942E-02
0.43689977E-01  0.67122376E-01  0.65396774E-01  -.24868928E-02
0.44269978E-01  0.67122228E-01  0.67058200E-01  -.26102034E-02
0.44849836E-01  0.67122382E-01  0.68736080E-01  -.27375856E-02
0.45429545E-01  0.67122904E-01  0.70430226E-01  -.28691014E-02
0.46009102E-01  0.67123854E-01  0.72140564E-01  -.30048170E-02
0.46588504E-01  0.67125282E-01  0.73867140E-01  -.31448028E-02
0.47167749E-01  0.67127222E-01  0.75610114E-01  -.32891340E-02
0.47746834E-01  0.67129694E-01  0.77369722E-01  -.34378896E-02
0.48325759E-01  0.67132704E-01  0.79146262E-01  -.35911520E-02
0.48904521E-01  0.67136242E-01  0.80940048E-01  -.37490052E-02
0.49483121E-01  0.67140290E-01  0.82751386E-01  -.39115336E-02
0.50061557E-01  0.67144812E-01  0.84580540E-01  -.40788210E-02
0.50639829E-01  0.67149774E-01  0.86427704E-01  -.42509482E-02
0.51217936E-01  0.67155132E-01  0.88292994E-01  -.44279932E-02
0.51795878E-01  0.67160842E-01  0.90176430E-01  -.46100290E-02
0.52373654E-01  0.67166866E-01  0.92077938E-01  -.47971238E-02
0.52951264E-01  0.67173166E-01  0.93997360E-01  -.49893406E-02
0.53528707E-01  0.67179716E-01  0.95934464E-01  -.51867378E-02
0.54105982E-01  0.67186498E-01  0.97888980E-01  -.53893698E-02
0.54683088E-01  0.67193510E-01  0.99860630E-01  -.55972894E-02
0.55260024E-01  0.67200770E-01  0.10184918E+00  -.58105504E-02
0.55836788E-01  0.67208320E-01  0.10385448E+00  -.60292094E-02
0.56413380E-01  0.67216226E-01  0.10587650E+00  -.62533298E-02
0.56989798E-01  0.67224586E-01  0.10791525E+00  -.64829752E-02
0.57566041E-01  0.67232978E-01  0.10997358E+00  -.67183804E-02
0.58142110E-01  0.67241418E-01  0.11205073E+00  -.69595724E-02
0.58718005E-01  0.67250206E-01  0.11414474E+00  -.72065024E-02
0.59293724E-01  0.67259592E-01  0.11625409E+00  -.74591386E-02
0.59869267E-01  0.67269746E-01  0.11837754E+00  -.77174612E-02
0.60444632E-01  0.67280786E-01  0.12051421E+00  -.79814666E-02
0.61019818E-01  0.67292802E-01  0.12266363E+00  -.82511780E-02
0.61594822E-01  0.67305814E-01  0.12482527E+00  -.85266122E-02
0.62169644E-01  0.67319698E-01  0.12699755E+00  -.88077046E-02
0.62744283E-01  0.67334226E-01  0.12917817E+00  -.90943318E-02
0.63318736E-01  0.67349258E-01  0.13136587E+00  -.93864356E-02
0.63893005E-01  0.67364812E-01  0.13356093E+00  -.96840588E-02
0.64467086E-01  0.67380858E-01  0.13576358E+00  -.99872442E-02
0.65040981E-01  0.67397370E-01  0.13797452E+00  -.10296065E-01
0.65614686E-01  0.67414316E-01  0.14019465E+00  -.10610615E-01
0.66188203E-01  0.67431664E-01  0.14242498E+00  -.10930997E-01
0.66761530E-01  0.67449380E-01  0.14466654E+00  -.11257315E-01
0.67334666E-01  0.67467438E-01  0.14692024E+00  -.11589667E-01
0.67907612E-01  0.67485802E-01  0.14918687E+00  -.11928144E-01
0.68480366E-01  0.67504462E-01  0.15146729E+00  -.12272836E-01
0.69052930E-01  0.67523220E-01  0.15376105E+00  -.12623729E-01
0.69625304E-01  0.67541838E-01  0.15606726E+00  -.12980759E-01
0.70197487E-01  0.67560098E-01  0.15838503E+00  -.13343855E-01
0.70769480E-01  0.67577826E-01  0.16071365E+00  -.13712949E-01
0.71341283E-01  0.67594974E-01  0.16305319E+00  -.14088034E-01
0.71912896E-01  0.67611648E-01  0.16540480E+00  -.14469200E-01
0.72484320E-01  0.67628080E-01  0.16777062E+00  -.14856628E-01
0.73055554E-01  0.67644528E-01  0.17015315E+00  -.15250544E-01
0.73626597E-01  0.67661190E-01  0.17255462E+00  -.15651163E-01
0.74197449E-01  0.67678164E-01  0.17497650E+00  -.16058645E-01
0.74768110E-01  0.67695446E-01  0.17741944E+00  -.16473082E-01
0.75338579E-01  0.67712962E-01  0.17988321E+00  -.16894497E-01
0.75908856E-01  0.67730608E-01  0.18236684E+00  -.17322858E-01
0.76478939E-01  0.67748288E-01  0.18486885E+00  -.17758091E-01
0.77048830E-01  0.67765954E-01  0.18738733E+00  -.18200104E-01
0.77618527E-01  0.67783624E-01  0.18992019E+00  -.18648801E-01
0.78188031E-01  0.67801402E-01  0.19246528E+00  -.19104104E-01
0.78757341E-01  0.67819472E-01  0.19502051E+00  -.19565958E-01
0.79326458E-01  0.67838106E-01  0.19758399E+00  -.20034344E-01
0.79895381E-01  0.67857624E-01  0.20015410E+00  -.20509280E-01
0.80464110E-01  0.67878458E-01  0.20272948E+00  -.20990812E-01
0.81032645E-01  0.67901078E-01  0.20530900E+00  -.21478992E-01
0.81600983E-01  0.67925894E-01  0.20789198E+00  -.21973906E-01
0.82169124E-01  0.67953274E-01  0.21047826E+00  -.22475658E-01
0.82737065E-01  0.67983518E-01  0.21306802E+00  -.22984362E-01
0.83304805E-01  0.68016864E-01  0.21566176E+00  -.23500118E-01
0.83872343E-01  0.68053464E-01  0.21826020E+00  -.24023016E-01
0.84439678E-01  0.68093394E-01  0.22086420E+00  -.24553122E-01
0.85006809E-01  0.68136646E-01  0.22347464E+00  -.25090470E-01
0.85573735E-01  0.68183140E-01  0.22609244E+00  -.25635070E-01
0.86140455E-01  0.68232746E-01  0.22871860E+00  -.26186922E-01
0.86706969E-01  0.68285280E-01  0.23135404E+00  -.26745998E-01
0.87273277E-01  0.68340538E-01  0.23399978E+00  -.27312274E-01
0.87839378E-01  0.68398294E-01  0.23665678E+00  -.27885718E-01
0.88405273E-01  0.68458312E-01  0.23932602E+00  -.28466294E-01
0.88970959E-01  0.68520348E-01  0.24200836E+00  -.29053964E-01
0.89536438E-01  0.68584166E-01  0.24470458E+00  -.29648688E-01
0.90101709E-01  0.68649534E-01  0.24741532E+00  -.30250422E-01
0.90666771E-01  0.68716148E-01  0.25014046E+00  -.30859038E-01
0.91231624E-01  0.68783864E-01  0.25288068E+00  -.31474538E-01
0.91796267E-01  0.68852522E-01  0.25563626E+00  -.32096886E-01
0.92360699E-01  0.68922006E-01  0.25840736E+00  -.32726056E-01
0.92924919E-01  0.68992210E-01  0.26119398E+00  -.33362020E-01
0.93488927E-01  0.69063046E-01  0.26399592E+00  -.34004742E-01
0.94052722E-01  0.69134440E-01  0.26681288E+00  -.34654186E-01
0.94616303E-01  0.69206344E-01  0.26964442E+00  -.35310312E-01
0.95179669E-01  0.69278730E-01  0.27248998E+00  -.35973086E-01
0.95742820E-01  0.69351588E-01  0.27534902E+00  -.36642474E-01
0.96305754E-01  0.69424930E-01  0.27822094E+00  -.37318448E-01
0.96868472E-01  0.69498786E-01  0.28110512E+00  -.38000982E-01
0.97430971E-01  0.69573204E-01  0.28400096E+00  -.38690054E-01
0.97993253E-01  0.69648238E-01  0.28690786E+00  -.39385650E-01
0.98555315E-01  0.69723956E-01  0.28982526E+00  -.40087756E-01
0.99117158E-01  0.69800436E-01  0.29275256E+00  -.40796346E-01
0.99678780E-01  0.69877754E-01  0.29568916E+00  -.41511398E-01
0.10024018E+00  0.69955990E-01  0.29863448E+00  -.42232880E-01
0.10080136E+00  0.70035214E-01  0.30158798E+00  -.42960760E-01
0.10136232E+00  0.70115500E-01  0.30454908E+00  -.43694992E-01
0.10192305E+00  0.70196910E-01  0.30751730E+00  -.44435534E-01
0.10248356E+00  0.70279524E-01  0.31049226E+00  -.45182350E-01
0.10304384E+00  0.70363438E-01  0.31347384E+00  -.45935438E-01
0.10360390E+00  0.70448772E-01  0.31646224E+00  -.46694824E-01
0.10416374E+00  0.70535530E-01  0.31945680E+00  -.47460416E-01
0.10472334E+00  0.70623724E-01  0.32245716E+00  -.48232150E-01
0.10528272E+00  0.70713398E-01  0.32546324E+00  -.49010000E-01
0.10584188E+00  0.70804620E-01  0.32847522E+00  -.49793976E-01
0.10640080E+00  0.70897470E-01  0.33149352E+00  -.50584126E-01
0.10695949E+00  0.70992058E-01  0.33451878E+00  -.51380538E-01
0.10751796E+00  0.71088520E-01  0.33755194E+00  -.52183348E-01
0.10807619E+00  0.71187002E-01  0.34059406E+00  -.52992718E-01
0.10863419E+00  0.71287626E-01  0.34364602E+00  -.53808782E-01
0.10919196E+00  0.71390412E-01  0.34670800E+00  -.54631536E-01
0.10974950E+00  0.71495232E-01  0.34977904E+00  -.55460770E-01
0.11030680E+00  0.71601836E-01  0.35285716E+00  -.56296066E-01
0.11086388E+00  0.71709944E-01  0.35594006E+00  -.57136932E-01
0.11142072E+00  0.71819342E-01  0.35902574E+00  -.57982928E-01
0.11197732E+00  0.71929924E-01  0.36211300E+00  -.58833748E-01
0.11253369E+00  0.72041690E-01  0.36520156E+00  -.59689260E-01
0.11308983E+00  0.72154728E-01  0.36829184E+00  -.60549482E-01
0.11364573E+00  0.72269180E-01  0.37138490E+00  -.61414554E-01
0.11420139E+00  0.72385208E-01  0.37448198E+00  -.62284678E-01
0.11475681E+00  0.72502952E-01  0.37758438E+00  -.63160062E-01
0.11531200E+00  0.72622530E-01  0.38069318E+00  -.64040896E-01
0.11586695E+00  0.72744036E-01  0.38380930E+00  -.64927350E-01
0.11642165E+00  0.72867572E-01  0.38693366E+00  -.65819586E-01
0.11697612E+00  0.72993246E-01  0.39006716E+00  -.66717792E-01
0.11753034E+00  0.73121196E-01  0.39321088E+00  -.67622180E-01
0.11808432E+00  0.73251572E-01  0.39636594E+00  -.68532994E-01
0.11863806E+00  0.73384540E-01  0.39953348E+00  -.69450494E-01
0.11919156E+00  0.73520258E-01  0.40271462E+00  -.70374924E-01
0.11974481E+00  0.73658856E-01  0.40591016E+00  -.71306486E-01
0.12029783E+00  0.73800434E-01  0.40912064E+00  -.72245316E-01
0.12085060E+00  0.73945060E-01  0.41234612E+00  -.73191456E-01
0.12140313E+00  0.74092752E-01  0.41558628E+00  -.74144856E-01
0.12195542E+00  0.74243492E-01  0.41884038E+00  -.75105368E-01
0.12250746E+00  0.74397236E-01  0.42210738E+00  -.76072770E-01
0.12305927E+00  0.74553912E-01  0.42538602E+00  -.77046776E-01
0.12361083E+00  0.74713440E-01  0.42867484E+00  -.78027050E-01
0.12416216E+00  0.74875732E-01  0.43197230E+00  -.79013222E-01
0.12471324E+00  0.75040704E-01  0.43527688E+00  -.80004910E-01
0.12526408E+00  0.75208280E-01  0.43858708E+00  -.81001736E-01
0.12581468E+00  0.75378392E-01  0.44190160E+00  -.82003350E-01
0.12636503E+00  0.75550986E-01  0.44521930E+00  -.83009432E-01
0.12691514E+00  0.75726018E-01  0.44853928E+00  -.84019708E-01
0.12746501E+00  0.75903462E-01  0.45186084E+00  -.85033956E-01
0.12801464E+00  0.76083304E-01  0.45518356E+00  -.86052006E-01
0.12856402E+00  0.76265542E-01  0.45850722E+00  -.87073746E-01
0.12911315E+00  0.76450182E-01  0.46183182E+00  -.88099110E-01
0.12966204E+00  0.76637240E-01  0.46515756E+00  -.89128086E-01
0.13021068E+00  0.76826736E-01  0.46848476E+00  -.90160696E-01
0.13075907E+00  0.77018694E-01  0.47181394E+00  -.91197004E-01
0.13130721E+00  0.77213144E-01  0.47514562E+00  -.92237092E-01
0.13185511E+00  0.77410114E-01  0.47848044E+00  -.93281070E-01
0.13240275E+00  0.77609630E-01  0.48181906E+00  -.94329056E-01
0.13295014E+00  0.77811718E-01  0.48516206E+00  -.95381160E-01
0.13349729E+00  0.78016404E-01  0.48851006E+00  -.96437498E-01
0.13404418E+00  0.78223710E-01  0.49186364E+00  -.97498182E-01
0.13459082E+00  0.78433662E-01  0.49522326E+00  -.98563306E-01
0.13513721E+00  0.78646282E-01  0.49858938E+00  -.99632948E-01
0.13568334E+00  0.78861594E-01  0.50196234E+00  -.10070717E+00
0.13622922E+00  0.79079620E-01  0.50534236E+00  -.10178602E+00
0.13677485E+00  0.79300382E-01  0.50872966E+00  -.10286951E+00
0.13732023E+00  0.79523904E-01  0.51212430E+00  -.10395763E+00
0.13786535E+00  0.79750208E-01  0.51552632E+00  -.10505038E+00
0.13841022E+00  0.79979322E-01  0.51893570E+00  -.10614772E+00
0.13895484E+00  0.80211276E-01  0.52235236E+00  -.10724960E+00
0.13949920E+00  0.80446102E-01  0.52577622E+00  -.10835597E+00
0.14004331E+00  0.80683830E-01  0.52920716E+00  -.10946678E+00
0.14058716E+00  0.80924494E-01  0.53264500E+00  -.11058194E+00
0.14113076E+00  0.81168124E-01  0.53608958E+00  -.11170138E+00
0.14167410E+00  0.81414760E-01  0.53954078E+00  -.11282504E+00
0.14221719E+00  0.81664432E-01  0.54299838E+00  -.11395283E+00
0.14276002E+00  0.81917174E-01  0.54646226E+00  -.11508468E+00
0.14330260E+00  0.82173024E-01  0.54993226E+00  -.11622053E+00
0.14384492E+00  0.82432018E-01  0.55340830E+00  -.11736032E+00
0.14438698E+00  0.82694194E-01  0.55689032E+00  -.11850400E+00
0.14492879E+00  0.82959596E-01  0.56037828E+00  -.11965152E+00
0.14547034E+00  0.83228262E-01  0.56387220E+00  -.12080288E+00
0.14601163E+00  0.83500236E-01  0.56737210E+00  -.12195805E+00
0.14655267E+00  0.83775566E-01  0.57087808E+00  -.12311704E+00
0.14709345E+00  0.84054298E-01  0.57439028E+00  -.12427985E+00
0.14763398E+00  0.84336480E-01  0.57790880E+00  -.12544651E+00
0.14817425E+00  0.84622162E-01  0.58143384E+00  -.12661705E+00
0.14871426E+00  0.84911390E-01  0.58496560E+00  -.12779150E+00
0.14925401E+00  0.85204218E-01  0.58850426E+00  -.12896991E+00
0.14979351E+00  0.85500692E-01  0.59205004E+00  -.13015233E+00
0.15033275E+00  0.85800866E-01  0.59560314E+00  -.13133880E+00
0.15087174E+00  0.86104786E-01  0.59916376E+00  -.13252938E+00
0.15141046E+00  0.86412498E-01  0.60273214E+00  -.13372412E+00
0.15194893E+00  0.86724050E-01  0.60630844E+00  -.13492306E+00
0.15248715E+00  0.87039484E-01  0.60989284E+00  -.13612626E+00
0.15302510E+00  0.87358840E-01  0.61348548E+00  -.13733374E+00
0.15356280E+00  0.87682156E-01  0.61708650E+00  -.13854553E+00
0.15410024E+00  0.88009464E-01  0.62069598E+00  -.13976167E+00
0.15463743E+00  0.88340790E-01  0.62431396E+00  -.14098215E+00
0.15517436E+00  0.88676158E-01  0.62794048E+00  -.14220698E+00
0.15571103E+00  0.89015584E-01  0.63157546E+00  -.14343612E+00
0.15624744E+00  0.89359078E-01  0.63521884E+00  -.14466955E+00
0.15678360E+00  0.89706644E-01  0.63887046E+00  -.14590720E+00
0.15731950E+00  0.90058278E-01  0.64253012E+00  -.14714900E+00
0.15785514E+00  0.90413974E-01  0.64619758E+00  -.14839485E+00
0.15839053E+00  0.90773716E-01  0.64987252E+00  -.14964464E+00
0.15892566E+00  0.91137498E-01  0.65355470E+00  -.15089825E+00
0.15946053E+00  0.91505190E-01  0.65724308E+00  -.15215532E+00
0.15999515E+00  0.91876454E-01  0.66093556E+00  -.15341508E+00
0.16052950E+00  0.92251106E-01  0.66463098E+00  -.15467707E+00
0.16106361E+00  0.92629050E-01  0.66832848E+00  -.15594097E+00
0.16159745E+00  0.93010218E-01  0.67202708E+00  -.15720638E+00
0.16213104E+00  0.93394552E-01  0.67572582E+00  -.15847289E+00
0.16266437E+00  0.93782016E-01  0.67942372E+00  -.15974011E+00
0.16319744E+00  0.94172590E-01  0.68312004E+00  -.16100769E+00
0.16373026E+00  0.94566278E-01  0.68681416E+00  -.16227536E+00
0.16426281E+00  0.94963112E-01  0.69050580E+00  -.16354293E+00
0.16479511E+00  0.95363146E-01  0.69419490E+00  -.16481033E+00
0.16532714E+00  0.95766460E-01  0.69788168E+00  -.16607758E+00
0.16585892E+00  0.96173154E-01  0.70156672E+00  -.16734481E+00
0.16639043E+00  0.96583348E-01  0.70525074E+00  -.16861228E+00
0.16692167E+00  0.96997178E-01  0.70893478E+00  -.16988032E+00
0.16745265E+00  0.97414790E-01  0.71262000E+00  -.17114934E+00
0.16798337E+00  0.97836336E-01  0.71630774E+00  -.17241982E+00
0.16851382E+00  0.98261972E-01  0.71999938E+00  -.17369228E+00
0.16904401E+00  0.98691852E-01  0.72369634E+00  -.17496726E+00
0.16957393E+00  0.99126124E-01  0.72740002E+00  -.17624531E+00
0.17010358E+00  0.99564926E-01  0.73111172E+00  -.17752694E+00
0.17063297E+00  0.10000839E+00  0.73483264E+00  -.17881265E+00
0.17116210E+00  0.10045663E+00  0.73856376E+00  -.18010285E+00
0.17169096E+00  0.10090975E+00  0.74230596E+00  -.18139790E+00
0.17221955E+00  0.10136783E+00  0.74605982E+00  -.18269808E+00
0.17274788E+00  0.10183094E+00  0.74982576E+00  -.18400360E+00
0.17327595E+00  0.10229915E+00  0.75360396E+00  -.18531455E+00
0.17380375E+00  0.10277249E+00  0.75739440E+00  -.18663097E+00
0.17433129E+00  0.10325099E+00  0.76119688E+00  -.18795281E+00
0.17485857E+00  0.10373467E+00  0.76501102E+00  -.18927994E+00
0.17538559E+00  0.10422354E+00  0.76883628E+00  -.19061218E+00
0.17591235E+00  0.10471760E+00  0.77267206E+00  -.19194930E+00
0.17643884E+00  0.10521684E+00  0.77651762E+00  -.19329102E+00
0.17696508E+00  0.10572124E+00  0.78037224E+00  -.19463706E+00
