Time,X-Force, Y-Force, Work integrand
0  0.032023205   0.00016478971   0   
0.00028213248  0.032014369   0.00016490421   6.5623884e-12   
0.00056414454  0.032007699   0.00016460305   4.583331e-11   
0.00084614336  0.031996289   0.00016392219   1.2384468e-10   
0.0011281561  0.031981766   0.00016262057   2.3919892e-10   
0.0014101887  0.031964423   0.00016052129   3.8919806e-10   
0.0016922434  0.031944637   0.00015751254   5.6964861e-10   
0.0019743207  0.03192301   0.00015350595   7.7469572e-10   
0.0022564201  0.031900288   0.00014842227   9.9665616e-10   
0.0025385401  0.031877258   0.00014218996   1.2258828e-09   
0.002820678  0.031854668   0.00013474677   1.4506753e-09   
0.0031028301  0.03183318   0.00012604074   1.6572343e-09   
0.0033849924  0.031813343   0.0001160303   1.8296519e-09   
0.003667161  0.031795594   0.00010468367   1.9499264e-09   
0.0039493321  0.031780253   9.1978087e-05   1.9980019e-09   
0.0042315024  0.031767535   7.7898973e-05   1.9518236e-09   
0.0045136696  0.031757559   6.2439146e-05   1.787411e-09   
0.0047958317  0.031750354   4.5598107e-05   1.4789426e-09   
0.0050779877  0.031745871   2.7381327e-05   9.9885019e-10   
0.0053601371  0.031743993   7.7994846e-06   3.1791613e-10   
0.0056422801  0.031744543   -1.3132312e-05   -5.9463043e-10   
0.0059244171  0.031747298   -3.5395356e-05   -1.7710232e-09   
0.0062065488  0.031751993   -5.8968219e-05   -3.2448808e-09   
0.006488676  0.031758338   -8.3827555e-05   -5.0511391e-09   
0.0067707997  0.031766021   -0.00010994889   -7.2259987e-09   
0.0070529209  0.031774721   -0.00013730731   -9.8068878e-09   
0.0073350402  0.031784119   -0.00016587816   -1.2832441e-08   
0.0076171586  0.031793901   -0.00019563754   -1.6342492e-08   
0.0078992766  0.031803773   -0.00022656279   -2.0378081e-08   
0.0081813946  0.03181346   -0.00025863286   -2.4981473e-08   
0.008463513  0.031822718   -0.00029182856   -3.0196187e-08   
0.0087456321  0.031831333   -0.00032613275   -3.6067027e-08   
0.0090277519  0.031839126   -0.0003615304   -4.2640124e-08   
0.0093098725  0.031845957   -0.00039800863   -4.9962976e-08   
0.0095919938  0.03185172   -0.00043555667   -5.8084486e-08   
0.0098741158  0.031856346   -0.00047416571   -6.7055003e-08   
0.010156238  0.0318598   -0.0005138288   -7.6926355e-08   
0.010438361  0.031862078   -0.00055454062   -8.7751874e-08   
0.010720484  0.031863206   -0.00059629739   -9.958643e-08   
0.011002607  0.031863232   -0.0006390965   -1.1248643e-07   
0.011284729  0.031862225   -0.00068293647   -1.2650982e-07   
0.011566851  0.031860274   -0.00072781668   -1.4171616e-07   
0.011848972  0.031857474   -0.00077373727   -1.5816654e-07   
0.012131093  0.031853935   -0.00082069889   -1.7592363e-07   
0.012413212  0.031849766   -0.00086870259   -1.9505167e-07   
0.012695331  0.03184508   -0.00091774968   -2.1561644e-07   
0.01297745  0.031839988   -0.00096784164   -2.3768528e-07   
0.013259567  0.031834596   -0.00101898   -2.6132701e-07   
0.013541684  0.031829003   -0.0010711661   -2.8661201e-07   
0.013823801  0.031823301   -0.0011244015   -3.136121e-07   
0.014105917  0.031817573   -0.0011786874   -3.4240061e-07   
0.014388033  0.031811888   -0.0012340248   -3.7305229e-07   
0.014670149  0.031806309   -0.0012904145   -4.0564335e-07   
0.014952264  0.031800886   -0.0013478571   -4.402514e-07   
0.015234379  0.031795658   -0.001406353   -4.7695545e-07   
0.015516494  0.031790655   -0.0014659022   -5.1583588e-07   
0.015798609  0.031785896   -0.0015265047   -5.5697447e-07   
0.016080724  0.031781394   -0.0015881599   -6.0045432e-07   
0.016362838  0.031777152   -0.0016508674   -6.4635988e-07   
0.016644952  0.031773166   -0.0017146263   -6.9477695e-07   
0.016927066  0.031769429   -0.0017794356   -7.4579264e-07   
0.01720918  0.031765927   -0.0018452943   -7.9949539e-07   
0.017491294  0.031762643   -0.0019122011   -8.5597496e-07   
0.017773407  0.031759558   -0.0019801547   -9.1532243e-07   
0.01805552  0.031756649   -0.0020491536   -9.776302e-07   
0.018337633  0.031753895   -0.0021191963   -1.042992e-06   
0.018619746  0.031751274   -0.0021902814   -1.1115028e-06   
0.018901858  0.031748762   -0.0022624073   -1.183259e-06   
0.01918397  0.031746338   -0.0023355725   -1.2583582e-06   
0.019466081  0.031743983   -0.0024097754   -1.3368995e-06   
0.019748192  0.031741677   -0.0024850145   -1.4189832e-06   
0.020030303  0.031739404   -0.0025612883   -1.5047108e-06   
0.020312413  0.031737149   -0.0026385952   -1.5941855e-06   
0.020594523  0.031734901   -0.0027169339   -1.6875113e-06   
0.020876632  0.031732649   -0.0027963027   -1.784794e-06   
0.021158741  0.031730385   -0.0028767003   -1.8861403e-06   
0.021440849  0.031728104   -0.0029581251   -1.9916584e-06   
0.021722956  0.031725801   -0.0030405757   -2.1014578e-06   
0.022005063  0.031723474   -0.0031240505   -2.2156491e-06   
0.02228717  0.031721124   -0.003208548   -2.3343443e-06   
0.022569276  0.031718751   -0.0032940665   -2.4576565e-06   
0.022851381  0.031716358   -0.0033806044   -2.5857003e-06   
0.023133485  0.031713948   -0.0034681599   -2.7185911e-06   
0.023415589  0.031711525   -0.0035567314   -2.8564457e-06   
0.023697692  0.031709096   -0.0036463168   -2.9993822e-06   
0.023979794  0.031706664   -0.0037369143   -3.1475195e-06   
0.024261896  0.031704237   -0.0038285217   -3.3009779e-06   
0.024543996  0.031701819   -0.0039211371   -3.4598789e-06   
0.024826096  0.031699418   -0.0040147581   -3.6243447e-06   
0.025108195  0.031697038   -0.0041093824   -3.7944989e-06   
0.025390293  0.031694686   -0.0042050076   -3.9704663e-06   
0.025672391  0.031692368   -0.0043016313   -4.1523723e-06   
0.025954487  0.031690087   -0.0043992509   -4.3403437e-06   
0.026236582  0.031687849   -0.0044978637   -4.5345083e-06   
0.026518677  0.031685657   -0.004597467   -4.7349948e-06   
0.02680077  0.031683517   -0.0046980581   -4.941933e-06   
0.027082863  0.031681429   -0.0047996341   -5.1554538e-06   
0.027364955  0.031679398   -0.0049021922   -5.3756889e-06   
0.027647045  0.031677426   -0.0050057294   -5.6027713e-06   
0.027929135  0.031675513   -0.0051102428   -5.8368346e-06   
0.028211223  0.031673663   -0.0052157294   -6.0780139e-06   
0.028493311  0.031671874   -0.0053221864   -6.3264449e-06   
0.028775397  0.031670149   -0.0054296107   -6.5822646e-06   
0.029057483  0.031668486   -0.0055379995   -6.8456109e-06   
0.029339568  0.031666886   -0.0056473498   -7.1166227e-06   
0.029621651  0.031665349   -0.0057576588   -7.3954402e-06   
0.029903734  0.031663873   -0.0058689237   -7.6822043e-06   
0.030185815  0.031662458   -0.0059811418   -7.9770572e-06   
0.030467896  0.031661101   -0.0060943103   -8.2801421e-06   
0.030749975  0.031659803   -0.0062084267   -8.5916032e-06   
0.031032054  0.031658561   -0.0063234884   -8.9115861e-06   
0.031314131  0.031657374   -0.0064394931   -9.2402372e-06   
0.031596207  0.031656239   -0.0065564383   -9.5777042e-06   
0.031878283  0.031655154   -0.0066743217   -9.9241357e-06   
0.032160357  0.031654117   -0.0067931413   -1.0279682e-05   
0.032442431  0.031653126   -0.0069128949   -1.0644493e-05   
0.032724503  0.031652178   -0.0070335806   -1.1018723e-05   
0.033006574  0.03165127   -0.0071551964   -1.1402523e-05   
0.033288644  0.0316504   -0.0072777406   -1.1796049e-05   
0.033570713  0.031649565   -0.0074012113   -1.2199455e-05   
0.033852781  0.031648761   -0.0075256069   -1.26129e-05   
0.034134848  0.031647987   -0.0076509258   -1.303654e-05   
0.034416914  0.031647237   -0.0077771664   -1.3470535e-05   
0.034698979  0.03164651   -0.0079043272   -1.3915045e-05   
0.034981042  0.031645802   -0.0080324068   -1.437023e-05   
0.035263105  0.031645109   -0.0081614037   -1.4836254e-05   
0.035545166  0.03164443   -0.0082913165   -1.5313279e-05   
0.035827226  0.031643759   -0.0084221437   -1.5801469e-05   
0.036109285  0.031643094   -0.008553884   -1.6300991e-05   
0.036391342  0.031642433   -0.0086865359   -1.6812011e-05   
0.036673399  0.031641771   -0.008820098   -1.7334695e-05   
0.036955454  0.031641106   -0.0089545688   -1.7869212e-05   
0.037237507  0.031640436   -0.0090899469   -1.8415732e-05   
0.037519559  0.031639757   -0.0092262307   -1.8974424e-05   
0.03780161  0.031639067   -0.0093634186   -1.954546e-05   
0.038083659  0.031638365   -0.009501509   -2.0129011e-05   
0.038365707  0.031637647   -0.0096405001   -2.072525e-05   
0.038647753  0.031636913   -0.0097803904   -2.1334351e-05   
0.038929798  0.031636162   -0.0099211779   -2.1956487e-05   
0.039211841  0.031635391   -0.010062861   -2.2591834e-05   
0.039493883  0.031634601   -0.010205437   -2.3240569e-05   
0.039775922  0.031633791   -0.010348905   -2.3902867e-05   
0.040057961  0.031632961   -0.010493263   -2.4578905e-05   
0.040339997  0.031632111   -0.010638508   -2.5268863e-05   
0.040622031  0.031631241   -0.010784638   -2.5972919e-05   
0.040904064  0.031630353   -0.010931651   -2.6691253e-05   
0.041186095  0.031629448   -0.011079546   -2.7424044e-05   
0.041468124  0.031628527   -0.011228319   -2.8171475e-05   
0.041750151  0.031627592   -0.011377968   -2.8933726e-05   
0.042032176  0.031626646   -0.011528492   -2.9710982e-05   
0.042314199  0.031625689   -0.011679888   -3.0503424e-05   
0.04259622  0.031624726   -0.011832153   -3.1311238e-05   
0.042878239  0.031623758   -0.011985285   -3.2134608e-05   
0.043160255  0.031622789   -0.012139283   -3.2973721e-05   
0.04344227  0.031621821   -0.012294144   -3.3828763e-05   
0.043724283  0.031620858   -0.012449865   -3.4699921e-05   
0.044006293  0.031619903   -0.012606445   -3.5587384e-05   
0.044288301  0.03161896   -0.012763882   -3.6491342e-05   
0.044570307  0.03161803   -0.012922173   -3.7411986e-05   
0.044852311  0.031617118   -0.013081316   -3.8349504e-05   
0.045134313  0.031616228   -0.01324131   -3.930409e-05   
0.045416312  0.03161536   -0.013402152   -4.0275936e-05   
0.045698309  0.03161452   -0.01356384   -4.1265237e-05   
0.045980304  0.03161371   -0.013726374   -4.2272189e-05   
0.046262297  0.031612932   -0.01388975   -4.3296987e-05   
0.046544287  0.031612188   -0.014053969   -4.4339831e-05   
0.046826275  0.031611482   -0.014219029   -4.5400919e-05   
0.047108261  0.031610814   -0.014384928   -4.648045e-05   
0.047390244  0.031610187   -0.014551666   -4.7578627e-05   
0.047672226  0.031609603   -0.014719241   -4.8695651e-05   
0.047954205  0.031609061   -0.014887652   -4.9831726e-05   
0.048236181  0.031608564   -0.015056898   -5.0987056e-05   
0.048518156  0.031608111   -0.015226978   -5.2161845e-05   
0.048800128  0.031607703   -0.015397892   -5.33563e-05   
0.049082098  0.031607339   -0.015569637   -5.4570629e-05   
0.049364066  0.03160702   -0.015742213   -5.5805038e-05   
0.049646032  0.031606743   -0.01591562   -5.7059737e-05   
0.049927995  0.03160651   -0.016089856   -5.8334936e-05   
0.050209957  0.031606317   -0.016264921   -5.9630846e-05   
0.050491916  0.031606163   -0.016440812   -6.0947678e-05   
0.050773873  0.031606047   -0.016617531   -6.2285644e-05   
0.051055828  0.031605966   -0.016795075   -6.3644958e-05   
0.051337781  0.031605917   -0.016973443   -6.5025835e-05   
0.051619731  0.031605899   -0.017152635   -6.6428487e-05   
0.05190168  0.031605908   -0.017332649   -6.7853132e-05   
0.052183626  0.031605942   -0.017513485   -6.9299985e-05   
0.052465571  0.031605996   -0.017695141   -7.0769263e-05   
0.052747513  0.031606069   -0.017877616   -7.2261182e-05   
0.053029454  0.031606156   -0.018060908   -7.377596e-05   
0.053311392  0.031606254   -0.018245016   -7.5313815e-05   
0.053593329  0.03160636   -0.018429939   -7.6874965e-05   
0.053875263  0.031606469   -0.018615675   -7.8459628e-05   
0.054157196  0.03160658   -0.018802221   -8.0068023e-05   
0.054439126  0.031606687   -0.018989577   -8.1700369e-05   
0.054721055  0.031606787   -0.01917774   -8.3356884e-05   
0.055002982  0.031606878   -0.019366708   -8.5037788e-05   
0.055284907  0.031606955   -0.019556479   -8.67433e-05   
0.05556683  0.031607016   -0.01974705   -8.8473639e-05   
0.055848751  0.031607057   -0.019938419   -9.0229024e-05   
0.05613067  0.031607076   -0.020130583   -9.2009674e-05   
0.056412587  0.03160707   -0.02032354   -9.3815808e-05   
0.056694502  0.031607035   -0.020517287   -9.5647645e-05   
0.056976416  0.03160697   -0.02071182   -9.7505405e-05   
0.057258327  0.031606873   -0.020907138   -9.9389306e-05   
0.057540237  0.03160674   -0.021103235   -0.00010129957   
0.057822145  0.031606572   -0.021300111   -0.00010323641   
0.05810405  0.031606365   -0.02149776   -0.00010520005   
0.058385954  0.031606119   -0.021696181   -0.0001071907   
0.058667856  0.031605832   -0.021895369   -0.00010920859   
0.058949756  0.031605504   -0.022095321   -0.00011125394   
0.059231654  0.031605133   -0.022296035   -0.00011332696   
0.059513551  0.03160472   -0.022497505   -0.00011542788   
0.059795445  0.031604265   -0.02269973   -0.00011755691   
0.060077337  0.031603766   -0.022902705   -0.00011971428   
0.060359227  0.031603225   -0.023106428   -0.0001219002   
0.060641115  0.031602642   -0.023310894   -0.00012411489   
0.060923002  0.031602017   -0.023516101   -0.00012635858   
0.061204886  0.031601352   -0.023722045   -0.00012863149   
0.061486768  0.031600647   -0.023928722   -0.00013093383   
0.061768648  0.031599904   -0.024136131   -0.00013326584   
0.062050526  0.031599124   -0.024344266   -0.00013562773   
0.062332401  0.031598308   -0.024553126   -0.00013801973   
0.062614275  0.031597458   -0.024762707   -0.00014044206   
0.062896146  0.031596576   -0.024973007   -0.00014289494   
0.063178015  0.031595663   -0.025184022   -0.00014537861   
0.063459882  0.031594723   -0.025395749   -0.00014789329   
0.063741747  0.031593756   -0.025608186   -0.00015043919   
0.064023609  0.031592764   -0.025821331   -0.00015301656   
0.064305469  0.031591751   -0.02603518   -0.00015562562   
0.064587326  0.031590718   -0.026249732   -0.0001582666   
0.064869181  0.031589667   -0.026464983   -0.00016093973   
0.065151034  0.0315886   -0.026680932   -0.00016364523   
0.065432884  0.031587521   -0.026897576   -0.00016638335   
0.065714732  0.031586431   -0.027114914   -0.00016915432   
0.065996578  0.031585332   -0.027332943   -0.00017195836   
0.06627842  0.031584226   -0.027551661   -0.00017479572   
0.06656026  0.031583117   -0.027771067   -0.00017766662   
0.066842098  0.031582005   -0.027991159   -0.00018057131   
0.067123933  0.031580893   -0.028211935   -0.00018351002   
0.067405765  0.031579783   -0.028433393   -0.00018648299   
0.067687595  0.031578677   -0.028655532   -0.00018949046   
0.067969421  0.031577576   -0.028878351   -0.00019253267   
0.068251245  0.031576483   -0.029101848   -0.00019560986   
0.068533066  0.031575399   -0.029326021   -0.00019872226   
0.068814885  0.031574326   -0.02955087   -0.00020187013   
0.0690967  0.031573265   -0.029776392   -0.00020505371   
0.069378513  0.031572217   -0.030002587   -0.00020827323   
0.069660323  0.031571185   -0.030229454   -0.00021152894   
0.06994213  0.031570168   -0.03045699   -0.0002148211   
0.070223933  0.031569169   -0.030685196   -0.00021814993   
0.070505734  0.031568188   -0.030914069   -0.0002215157   
0.070787532  0.031567225   -0.031143609   -0.00022491864   
0.071069327  0.031566283   -0.031373815   -0.00022835901   
0.071351118  0.031565361   -0.031604685   -0.00023183705   
0.071632907  0.03156446   -0.031836218   -0.000235353   
0.071914692  0.03156358   -0.032068413   -0.00023890713   
0.072196475  0.031562722   -0.032301269   -0.00024249967   
0.072478254  0.031561886   -0.032534785   -0.00024613088   
0.07276003  0.031561073   -0.03276896   -0.00024980101   
0.073041803  0.031560281   -0.033003792   -0.00025351031   
0.073323572  0.031559512   -0.03323928   -0.00025725902   
0.073605338  0.031558765   -0.033475424   -0.00026104741   
0.073887101  0.031558041   -0.033712221   -0.00026487572   
0.074168861  0.031557338   -0.033949671   -0.0002687442   
0.074450617  0.031556656   -0.034187773   -0.00027265311   
0.07473237  0.031555996   -0.034426525   -0.0002766027   
0.07501412  0.031555356   -0.034665926   -0.00028059322   
0.075295866  0.031554737   -0.034905974   -0.00028462493   
0.075577609  0.031554137   -0.035146669   -0.00028869808   
0.075859349  0.031553557   -0.035388009   -0.00029281291   
0.076141085  0.031552995   -0.035629993   -0.0002969697   
0.076422818  0.03155245   -0.035872619   -0.00030116868   
0.076704547  0.031551923   -0.036115886   -0.00030541012   
0.076986272  0.031551413   -0.036359793   -0.00030969427   
0.077267995  0.031550917   -0.036604339   -0.00031402139   
0.077549713  0.031550437   -0.036849521   -0.00031839172   
0.077831429  0.031549971   -0.037095339   -0.00032280553   
0.07811314  0.031549518   -0.03734179   -0.00032726307   
0.078394849  0.031549078   -0.037588875   -0.00033176459   
0.078676553  0.031548649   -0.03783659   -0.00033631036   
0.078958254  0.031548231   -0.038084935   -0.00034090063   
0.079239952  0.031547824   -0.038333908   -0.00034553565   
0.079521646  0.031547425   -0.038583508   -0.00035021568   
0.079803336  0.031547035   -0.038833733   -0.00035494098   
0.080085022  0.031546653   -0.039084581   -0.0003597118   
0.080366706  0.031546278   -0.039336051   -0.0003645284   
0.080648385  0.031545909   -0.039588142   -0.00036939105   
0.080930061  0.031545546   -0.039840851   -0.00037429998   
0.081211733  0.031545188   -0.040094178   -0.00037925547   
0.081493401  0.031544834   -0.04034812   -0.00038425777   
0.081775066  0.031544484   -0.040602675   -0.00038930713   
0.082056727  0.031544136   -0.040857843   -0.00039440382   
0.082338384  0.031543792   -0.041113622   -0.00039954809   
0.082620038  0.031543449   -0.041370009   -0.0004047402   
0.082901688  0.031543108   -0.041627003   -0.0004099804   
0.083183334  0.031542768   -0.041884602   -0.00041526896   
0.083464977  0.031542429   -0.042142805   -0.00042060612   
0.083746615  0.03154209   -0.04240161   -0.00042599216   
0.08402825  0.031541751   -0.042661014   -0.00043142731   
0.084309882  0.031541412   -0.042921016   -0.00043691185   
0.084591509  0.031541073   -0.043181614   -0.00044244603   
0.084873133  0.031540733   -0.043442807   -0.0004480301   
0.085154753  0.031540393   -0.043704592   -0.00045366432   
0.085436369  0.031540051   -0.043966967   -0.00045934895   
0.085717981  0.031539709   -0.04422993   -0.00046508425   
0.08599959  0.031539367   -0.04449348   -0.00047087047   
0.086281194  0.031539022   -0.04475762   -0.00047670792   
0.086562795  0.031538674   -0.045022344   -0.00048259682   
0.086844392  0.031538323   -0.045287646   -0.0004885374   
0.087125986  0.031537971   -0.045553523   -0.00049452988   
0.087407575  0.031537617   -0.045819974   -0.00050057453   
0.08768916  0.031537264   -0.046086995   -0.0005066716   
0.087970742  0.031536912   -0.046354587   -0.00051282137   
0.088252319  0.031536563   -0.046622747   -0.00051902407   
0.088533892  0.031536217   -0.046891471   -0.00052527995   
0.088815461  0.031535875   -0.047160756   -0.00053158926   
0.089097026  0.031535537   -0.0474306   -0.00053795223   
0.089378587  0.031535203   -0.047700998   -0.00054436911   
0.089660144  0.031534875   -0.047971949   -0.00055084015   
0.089941697  0.031534551   -0.048243451   -0.0005573656   
0.090223246  0.031534232   -0.048515501   -0.00056394572   
0.09050479  0.031533919   -0.048788099   -0.00057058077   
0.09078633  0.031533612   -0.049061243   -0.00057727102   
0.091067866  0.03153331   -0.049334933   -0.00058401674   
0.091349398  0.031533013   -0.049609166   -0.00059081818   
0.091630926  0.031532724   -0.049883943   -0.00059767563   
0.091912449  0.03153244   -0.050159262   -0.00060458934   
0.092193969  0.031532163   -0.050435122   -0.00061155957   
0.092475484  0.031531893   -0.05071152   -0.00061858659   
0.092756994  0.031531631   -0.050988456   -0.00062567066   
0.093038501  0.031531376   -0.051265926   -0.00063281202   
0.093320003  0.031531129   -0.05154393   -0.00064001094   
