 Time,X-Force, Y-Force, Work integrand
0.00000000E+00  0.65423404E-01  0.31197466E-02  0.00000000E+00
0.13889429E-03  0.65430208E-01  0.31329440E-02  -.25959070E-09
0.27772901E-03  0.65442162E-01  0.31392004E-02  -.18160972E-08
0.41655907E-03  0.65449166E-01  0.31436240E-02  -.49250346E-08
0.55539925E-03  0.65452982E-01  0.31433928E-02  -.95653102E-08
0.69424812E-03  0.65453504E-01  0.31388370E-02  -.15702461E-07
0.83310356E-03  0.65450716E-01  0.31318340E-02  -.23307008E-07
0.97196417E-03  0.65445010E-01  0.31240524E-02  -.32365756E-07
0.11108287E-02  0.65437008E-01  0.31166594E-02  -.42884526E-07
0.12496957E-02  0.65427390E-01  0.31104388E-02  -.54886884E-07
0.13885638E-02  0.65416792E-01  0.31059100E-02  -.68415308E-07
0.15274315E-02  0.65405778E-01  0.31034034E-02  -.83527634E-07
0.16662975E-02  0.65394812E-01  0.31031080E-02  -.10029729E-06
0.18051607E-02  0.65384282E-01  0.31051064E-02  -.11880919E-06
0.19440204E-02  0.65374500E-01  0.31094064E-02  -.13915863E-06
0.20828763E-02  0.65365712E-01  0.31159672E-02  -.16144980E-06
0.22217281E-02  0.65358114E-01  0.31247202E-02  -.18579349E-06
0.23605760E-02  0.65351850E-01  0.31355872E-02  -.21230810E-06
0.24994202E-02  0.65347016E-01  0.31484912E-02  -.24111872E-06
0.26382610E-02  0.65343666E-01  0.31633640E-02  -.27235782E-06
0.27770990E-02  0.65341820E-01  0.31801510E-02  -.30616694E-06
0.29159344E-02  0.65341454E-01  0.31988114E-02  -.34269462E-06
0.30547679E-02  0.65342514E-01  0.32193192E-02  -.38210176E-06
0.31935997E-02  0.65344922E-01  0.32416594E-02  -.42455638E-06
0.33324303E-02  0.65348574E-01  0.32658248E-02  -.47023898E-06
0.34712598E-02  0.65353348E-01  0.32918126E-02  -.51933794E-06
0.36100887E-02  0.65359108E-01  0.33196208E-02  -.57205300E-06
0.37489170E-02  0.65365710E-01  0.33492466E-02  -.62859294E-06
0.38877449E-02  0.65373012E-01  0.33806842E-02  -.68917422E-06
0.40265725E-02  0.65380862E-01  0.34139244E-02  -.75402188E-06
0.41653998E-02  0.65389124E-01  0.34489530E-02  -.82336800E-06
0.43042269E-02  0.65397660E-01  0.34857530E-02  -.89745298E-06
0.44430538E-02  0.65406344E-01  0.35243032E-02  -.97652116E-06
0.45818805E-02  0.65415066E-01  0.35645806E-02  -.10608268E-05
0.47207069E-02  0.65423722E-01  0.36065610E-02  -.11506285E-05
0.48595330E-02  0.65432224E-01  0.36502198E-02  -.12461907E-05
0.49983588E-02  0.65440500E-01  0.36955336E-02  -.13477876E-05
0.51371843E-02  0.65448488E-01  0.37424804E-02  -.14556973E-05
0.52760094E-02  0.65456140E-01  0.37910406E-02  -.15702078E-05
0.54148342E-02  0.65463420E-01  0.38411984E-02  -.16916137E-05
0.55536585E-02  0.65470306E-01  0.38929414E-02  -.18202196E-05
0.56924824E-02  0.65476784E-01  0.39462608E-02  -.19563379E-05
0.58313059E-02  0.65482846E-01  0.40011516E-02  -.21002900E-05
0.59701289E-02  0.65488498E-01  0.40576130E-02  -.22524100E-05
0.61089514E-02  0.65493750E-01  0.41156476E-02  -.24130400E-05
0.62477734E-02  0.65498616E-01  0.41752610E-02  -.25825328E-05
0.63865949E-02  0.65503114E-01  0.42364598E-02  -.27612524E-05
0.65254159E-02  0.65507272E-01  0.42992518E-02  -.29495710E-05
0.66642363E-02  0.65511114E-01  0.43636450E-02  -.31478694E-05
0.68030561E-02  0.65514668E-01  0.44296464E-02  -.33565392E-05
0.69418753E-02  0.65517964E-01  0.44972628E-02  -.35759774E-05
0.70806939E-02  0.65521032E-01  0.45664988E-02  -.38065908E-05
0.72195117E-02  0.65523898E-01  0.46373580E-02  -.40487922E-05
0.73583287E-02  0.65526596E-01  0.47098424E-02  -.43030012E-05
0.74971450E-02  0.65529148E-01  0.47839522E-02  -.45696448E-05
0.76359604E-02  0.65531586E-01  0.48596862E-02  -.48491564E-05
0.77747749E-02  0.65533930E-01  0.49370414E-02  -.51419744E-05
0.79135885E-02  0.65536208E-01  0.50160140E-02  -.54485446E-05
0.80524011E-02  0.65538436E-01  0.50965992E-02  -.57693188E-05
0.81912127E-02  0.65540634E-01  0.51787920E-02  -.61047560E-05
0.83300232E-02  0.65542820E-01  0.52625868E-02  -.64553206E-05
0.84688325E-02  0.65545006E-01  0.53479780E-02  -.68214850E-05
0.86076407E-02  0.65547208E-01  0.54349602E-02  -.72037288E-05
0.87464476E-02  0.65549432E-01  0.55235278E-02  -.76025372E-05
0.88852532E-02  0.65551690E-01  0.56136756E-02  -.80184048E-05
0.90240576E-02  0.65553988E-01  0.57053988E-02  -.84518308E-05
0.91628606E-02  0.65556328E-01  0.57986920E-02  -.89033224E-05
0.93016621E-02  0.65558716E-01  0.58935500E-02  -.93733926E-05
0.94404622E-02  0.65561154E-01  0.59899678E-02  -.98625608E-05
0.95792609E-02  0.65563642E-01  0.60879398E-02  -.10371353E-04
0.97180580E-02  0.65566180E-01  0.61874602E-02  -.10900298E-04
0.98568535E-02  0.65568768E-01  0.62885226E-02  -.11449932E-04
0.99956474E-02  0.65571402E-01  0.63911212E-02  -.12020797E-04
0.10134440E-01  0.65574082E-01  0.64952486E-02  -.12613439E-04
0.10273230E-01  0.65576806E-01  0.66008984E-02  -.13228406E-04
0.10412019E-01  0.65579568E-01  0.67080628E-02  -.13866254E-04
0.10550806E-01  0.65582368E-01  0.68167348E-02  -.14527542E-04
0.10689592E-01  0.65585202E-01  0.69269064E-02  -.15212836E-04
0.10828375E-01  0.65588066E-01  0.70385704E-02  -.15922701E-04
0.10967157E-01  0.65590958E-01  0.71517190E-02  -.16657710E-04
0.11105937E-01  0.65593872E-01  0.72663446E-02  -.17418444E-04
0.11244714E-01  0.65596806E-01  0.73824398E-02  -.18205482E-04
0.11383490E-01  0.65599758E-01  0.74999968E-02  -.19019411E-04
0.11522264E-01  0.65602724E-01  0.76190086E-02  -.19860824E-04
0.11661036E-01  0.65605700E-01  0.77394678E-02  -.20730314E-04
0.11799806E-01  0.65608684E-01  0.78613670E-02  -.21628486E-04
0.11938574E-01  0.65611670E-01  0.79846990E-02  -.22555942E-04
0.12077340E-01  0.65614660E-01  0.81094570E-02  -.23513292E-04
0.12216104E-01  0.65617646E-01  0.82356336E-02  -.24501152E-04
0.12354866E-01  0.65620626E-01  0.83632222E-02  -.25520142E-04
0.12493626E-01  0.65623596E-01  0.84922158E-02  -.26570886E-04
0.12632383E-01  0.65626554E-01  0.86226078E-02  -.27654016E-04
0.12771139E-01  0.65629494E-01  0.87543916E-02  -.28770164E-04
0.12909893E-01  0.65632414E-01  0.88875608E-02  -.29919972E-04
0.13048644E-01  0.65635308E-01  0.90221090E-02  -.31104084E-04
0.13187393E-01  0.65638170E-01  0.91580300E-02  -.32323152E-04
0.13326141E-01  0.65641000E-01  0.92953178E-02  -.33577830E-04
0.13464886E-01  0.65643788E-01  0.94339666E-02  -.34868782E-04
0.13603629E-01  0.65646530E-01  0.95739704E-02  -.36196672E-04
0.13742370E-01  0.65649222E-01  0.97153236E-02  -.37562172E-04
0.13881109E-01  0.65651856E-01  0.98580208E-02  -.38965958E-04
0.14019846E-01  0.65654430E-01  0.10002057E-01  -.40408714E-04
0.14158581E-01  0.65656934E-01  0.10147426E-01  -.41891124E-04
0.14297313E-01  0.65659366E-01  0.10294124E-01  -.43413882E-04
0.14436044E-01  0.65661718E-01  0.10442145E-01  -.44977688E-04
0.14574773E-01  0.65663984E-01  0.10591486E-01  -.46583242E-04
0.14713499E-01  0.65666160E-01  0.10742142E-01  -.48231250E-04
0.14852224E-01  0.65668240E-01  0.10894109E-01  -.49922428E-04
0.14990946E-01  0.65670220E-01  0.11047384E-01  -.51657494E-04
0.15129667E-01  0.65672094E-01  0.11201961E-01  -.53437168E-04
0.15268385E-01  0.65673860E-01  0.11357840E-01  -.55262178E-04
0.15407101E-01  0.65675512E-01  0.11515017E-01  -.57133258E-04
0.15545815E-01  0.65677050E-01  0.11673488E-01  -.59051148E-04
0.15684527E-01  0.65678472E-01  0.11833254E-01  -.61016588E-04
0.15823237E-01  0.65679774E-01  0.11994311E-01  -.63030326E-04
0.15961945E-01  0.65680956E-01  0.12156658E-01  -.65093120E-04
0.16100650E-01  0.65682022E-01  0.12320296E-01  -.67205724E-04
0.16239354E-01  0.65682970E-01  0.12485223E-01  -.69368906E-04
0.16378055E-01  0.65683804E-01  0.12651439E-01  -.71583434E-04
0.16516753E-01  0.65684528E-01  0.12818946E-01  -.73850084E-04
0.16655449E-01  0.65685144E-01  0.12987744E-01  -.76169638E-04
0.16794143E-01  0.65685658E-01  0.13157834E-01  -.78542880E-04
0.16932834E-01  0.65686080E-01  0.13329219E-01  -.80970602E-04
0.17071522E-01  0.65686412E-01  0.13501900E-01  -.83453604E-04
0.17210208E-01  0.65686668E-01  0.13675880E-01  -.85992686E-04
0.17348891E-01  0.65686852E-01  0.13851162E-01  -.88588656E-04
0.17487571E-01  0.65686978E-01  0.14027749E-01  -.91242336E-04
0.17626248E-01  0.65687056E-01  0.14205645E-01  -.93954532E-04
0.17764922E-01  0.65687096E-01  0.14384850E-01  -.96726066E-04
0.17903593E-01  0.65687112E-01  0.14565369E-01  -.99557758E-04
0.18042260E-01  0.65687118E-01  0.14747203E-01  -.10245044E-03
0.18180924E-01  0.65687126E-01  0.14930356E-01  -.10540493E-03
0.18319584E-01  0.65687150E-01  0.15114829E-01  -.10842208E-03
0.18458241E-01  0.65687204E-01  0.15300627E-01  -.11150272E-03
0.18596894E-01  0.65687304E-01  0.15487750E-01  -.11464768E-03
0.18735543E-01  0.65687464E-01  0.15676202E-01  -.11785783E-03
0.18874187E-01  0.65687700E-01  0.15865986E-01  -.12113400E-03
0.19012828E-01  0.65688024E-01  0.16057103E-01  -.12447705E-03
0.19151464E-01  0.65688452E-01  0.16249556E-01  -.12788785E-03
0.19290096E-01  0.65688994E-01  0.16443346E-01  -.13136725E-03
0.19428723E-01  0.65689668E-01  0.16638477E-01  -.13491613E-03
0.19567346E-01  0.65690484E-01  0.16834948E-01  -.13853534E-03
0.19705964E-01  0.65691454E-01  0.17032761E-01  -.14222576E-03
0.19844577E-01  0.65692586E-01  0.17231918E-01  -.14598826E-03
0.19983185E-01  0.65693894E-01  0.17432418E-01  -.14982372E-03
0.20121788E-01  0.65695382E-01  0.17634262E-01  -.15373302E-03
0.20260386E-01  0.65697058E-01  0.17837451E-01  -.15771705E-03
0.20398979E-01  0.65698930E-01  0.18041984E-01  -.16177669E-03
0.20537566E-01  0.65700998E-01  0.18247862E-01  -.16591284E-03
0.20676149E-01  0.65703266E-01  0.18455085E-01  -.17012639E-03
0.20814726E-01  0.65705734E-01  0.18663652E-01  -.17441826E-03
0.20953298E-01  0.65708402E-01  0.18873564E-01  -.17878935E-03
0.21091865E-01  0.65711266E-01  0.19084820E-01  -.18324057E-03
0.21230426E-01  0.65714324E-01  0.19297421E-01  -.18777284E-03
0.21368983E-01  0.65717564E-01  0.19511367E-01  -.19238709E-03
0.21507535E-01  0.65720982E-01  0.19726657E-01  -.19708425E-03
0.21646081E-01  0.65724566E-01  0.19943292E-01  -.20186526E-03
0.21784623E-01  0.65728302E-01  0.20161272E-01  -.20673104E-03
0.21923160E-01  0.65732176E-01  0.20380596E-01  -.21168258E-03
0.22061692E-01  0.65736174E-01  0.20601266E-01  -.21672078E-03
0.22200220E-01  0.65740276E-01  0.20823280E-01  -.22184664E-03
0.22338744E-01  0.65744462E-01  0.21046640E-01  -.22706110E-03
0.22477263E-01  0.65748712E-01  0.21271344E-01  -.23236514E-03
0.22615778E-01  0.65753002E-01  0.21497394E-01  -.23775972E-03
0.22754290E-01  0.65757308E-01  0.21724788E-01  -.24324580E-03
0.22892798E-01  0.65761602E-01  0.21953526E-01  -.24882438E-03
0.23031303E-01  0.65765860E-01  0.22183608E-01  -.25449644E-03
0.23169805E-01  0.65770054E-01  0.22415034E-01  -.26026294E-03
0.23308304E-01  0.65774154E-01  0.22647800E-01  -.26612486E-03
0.23446800E-01  0.65778132E-01  0.22881908E-01  -.27208320E-03
0.23585295E-01  0.65781956E-01  0.23117354E-01  -.27813892E-03
0.23723787E-01  0.65785598E-01  0.23354136E-01  -.28429302E-03
0.23862277E-01  0.65789024E-01  0.23592254E-01  -.29054646E-03
0.24000766E-01  0.65792202E-01  0.23831718E-01  -.29690040E-03
0.24139254E-01  0.65795098E-01  0.24072516E-01  -.30335570E-03
0.24277741E-01  0.65797684E-01  0.24314644E-01  -.30991334E-03
0.24416227E-01  0.65799932E-01  0.24558096E-01  -.31657424E-03
0.24554712E-01  0.65801818E-01  0.24802860E-01  -.32333932E-03
0.24693198E-01  0.65803318E-01  0.25048932E-01  -.33020948E-03
0.24831683E-01  0.65804410E-01  0.25296298E-01  -.33718560E-03
0.24970169E-01  0.65805074E-01  0.25544948E-01  -.34426858E-03
0.25108654E-01  0.65805292E-01  0.25794872E-01  -.35145926E-03
0.25247141E-01  0.65805046E-01  0.26046058E-01  -.35875854E-03
0.25385628E-01  0.65804324E-01  0.26298498E-01  -.36616732E-03
0.25524116E-01  0.65803112E-01  0.26552186E-01  -.37368650E-03
0.25662605E-01  0.65801402E-01  0.26807118E-01  -.38131704E-03
0.25801095E-01  0.65799190E-01  0.27063290E-01  -.38905990E-03
0.25939587E-01  0.65796470E-01  0.27320698E-01  -.39691602E-03
0.26078080E-01  0.65793248E-01  0.27579342E-01  -.40488638E-03
0.26216574E-01  0.65789528E-01  0.27839218E-01  -.41297196E-03
0.26355069E-01  0.65785314E-01  0.28100326E-01  -.42117374E-03
0.26493566E-01  0.65780624E-01  0.28362662E-01  -.42949270E-03
0.26632065E-01  0.65775470E-01  0.28626226E-01  -.43792980E-03
0.26770564E-01  0.65769874E-01  0.28891014E-01  -.44648604E-03
0.26909065E-01  0.65763858E-01  0.29157026E-01  -.45516238E-03
0.27047567E-01  0.65757450E-01  0.29424260E-01  -.46395982E-03
0.27186069E-01  0.65750680E-01  0.29692712E-01  -.47287930E-03
0.27324573E-01  0.65743586E-01  0.29962384E-01  -.48192182E-03
0.27463077E-01  0.65736202E-01  0.30233270E-01  -.49108836E-03
0.27601581E-01  0.65728574E-01  0.30505360E-01  -.50037978E-03
0.27740084E-01  0.65720740E-01  0.30778642E-01  -.50979684E-03
0.27878588E-01  0.65712754E-01  0.31053122E-01  -.51934068E-03
0.28017091E-01  0.65704666E-01  0.31328804E-01  -.52901240E-03
0.28155593E-01  0.65696532E-01  0.31605700E-01  -.53881308E-03
0.28294093E-01  0.65688410E-01  0.31883810E-01  -.54874384E-03
0.28432591E-01  0.65680362E-01  0.32163146E-01  -.55880586E-03
0.28571087E-01  0.65672450E-01  0.32443710E-01  -.56900014E-03
0.28709581E-01  0.65664742E-01  0.32725502E-01  -.57932776E-03
0.28848071E-01  0.65657304E-01  0.33008516E-01  -.58978970E-03
0.28986558E-01  0.65650206E-01  0.33292752E-01  -.60038688E-03
0.29125040E-01  0.65643518E-01  0.33578198E-01  -.61112020E-03
0.29263518E-01  0.65637314E-01  0.33864848E-01  -.62199058E-03
0.29401990E-01  0.65631664E-01  0.34152688E-01  -.63299882E-03
0.29540457E-01  0.65626646E-01  0.34441708E-01  -.64414572E-03
0.29678918E-01  0.65622330E-01  0.34731890E-01  -.65543210E-03
0.29817371E-01  0.65618790E-01  0.35023224E-01  -.66685866E-03
0.29955817E-01  0.65616102E-01  0.35315688E-01  -.67842616E-03
0.30094255E-01  0.65614336E-01  0.35609270E-01  -.69013528E-03
0.30232685E-01  0.65613566E-01  0.35903948E-01  -.70198668E-03
0.30371105E-01  0.65613862E-01  0.36199704E-01  -.71398106E-03
0.30509516E-01  0.65615296E-01  0.36496518E-01  -.72611902E-03
0.30647917E-01  0.65617932E-01  0.36794376E-01  -.73840122E-03
0.30786307E-01  0.65621836E-01  0.37093254E-01  -.75082828E-03
0.30924685E-01  0.65627074E-01  0.37393136E-01  -.76340080E-03
0.31063052E-01  0.65633698E-01  0.37693928E-01  -.77611798E-03
0.31201407E-01  0.65641766E-01  0.37995646E-01  -.78898106E-03
0.31339749E-01  0.65651332E-01  0.38298294E-01  -.80199102E-03
0.31478077E-01  0.65662452E-01  0.38601888E-01  -.81514904E-03
0.31616392E-01  0.65675172E-01  0.38906444E-01  -.82845642E-03
0.31754694E-01  0.65689540E-01  0.39211982E-01  -.84191448E-03
0.31892980E-01  0.65705598E-01  0.39518522E-01  -.85552450E-03
0.32031253E-01  0.65723382E-01  0.39826074E-01  -.86928770E-03
0.32169510E-01  0.65742926E-01  0.40134650E-01  -.88320524E-03
0.32307752E-01  0.65764256E-01  0.40444256E-01  -.89727824E-03
0.32445979E-01  0.65787396E-01  0.40754894E-01  -.91150770E-03
0.32584189E-01  0.65812366E-01  0.41066560E-01  -.92589458E-03
0.32722384E-01  0.65839180E-01  0.41379254E-01  -.94043980E-03
0.32860563E-01  0.65867848E-01  0.41692970E-01  -.95514418E-03
0.32998726E-01  0.65898370E-01  0.42007696E-01  -.97000858E-03
0.33136873E-01  0.65930750E-01  0.42323430E-01  -.98503378E-03
0.33275003E-01  0.65964982E-01  0.42640158E-01  -.10002205E-02
0.33413117E-01  0.66001054E-01  0.42957870E-01  -.10155696E-02
0.33551214E-01  0.66038954E-01  0.43276558E-01  -.10310818E-02
0.33689295E-01  0.66078664E-01  0.43596212E-01  -.10467579E-02
0.33827360E-01  0.66120158E-01  0.43916822E-01  -.10625985E-02
0.33965408E-01  0.66163412E-01  0.44238380E-01  -.10786044E-02
0.34103441E-01  0.66208392E-01  0.44560876E-01  -.10947765E-02
0.34241457E-01  0.66255066E-01  0.44884304E-01  -.11111155E-02
0.34379457E-01  0.66303392E-01  0.45208656E-01  -.11276222E-02
0.34517442E-01  0.66353328E-01  0.45533928E-01  -.11442973E-02
0.34655411E-01  0.66404828E-01  0.45860114E-01  -.11611418E-02
0.34793366E-01  0.66457840E-01  0.46187208E-01  -.11781565E-02
0.34931305E-01  0.66512312E-01  0.46515208E-01  -.11953423E-02
0.35069230E-01  0.66568186E-01  0.46844110E-01  -.12126999E-02
0.35207141E-01  0.66625400E-01  0.47173912E-01  -.12302303E-02
0.35345037E-01  0.66683892E-01  0.47504610E-01  -.12479343E-02
0.35482921E-01  0.66743596E-01  0.47836202E-01  -.12658129E-02
0.35620791E-01  0.66804438E-01  0.48168688E-01  -.12838670E-02
0.35758649E-01  0.66866350E-01  0.48502064E-01  -.13020974E-02
0.35896495E-01  0.66929252E-01  0.48836332E-01  -.13205052E-02
0.36034330E-01  0.66993068E-01  0.49171492E-01  -.13390912E-02
0.36172153E-01  0.67057720E-01  0.49507542E-01  -.13578564E-02
0.36309966E-01  0.67123120E-01  0.49844486E-01  -.13768019E-02
0.36447769E-01  0.67189186E-01  0.50182322E-01  -.13959286E-02
0.36585563E-01  0.67255830E-01  0.50521054E-01  -.14152375E-02
0.36723348E-01  0.67322966E-01  0.50860686E-01  -.14347297E-02
0.36861125E-01  0.67390500E-01  0.51201218E-01  -.14544062E-02
0.36998894E-01  0.67458346E-01  0.51542652E-01  -.14742680E-02
0.37136657E-01  0.67526408E-01  0.51884988E-01  -.14943161E-02
0.37274414E-01  0.67594596E-01  0.52228234E-01  -.15145517E-02
0.37412165E-01  0.67662816E-01  0.52572396E-01  -.15349760E-02
0.37549911E-01  0.67730976E-01  0.52917484E-01  -.15555902E-02
0.37687654E-01  0.67798978E-01  0.53263500E-01  -.15763954E-02
0.37825392E-01  0.67866732E-01  0.53610450E-01  -.15973927E-02
0.37963129E-01  0.67934140E-01  0.53958336E-01  -.16185833E-02
0.38100863E-01  0.68001108E-01  0.54307160E-01  -.16399682E-02
0.38238595E-01  0.68067544E-01  0.54656922E-01  -.16615485E-02
0.38376327E-01  0.68133356E-01  0.55007624E-01  -.16833251E-02
0.38514059E-01  0.68198450E-01  0.55359264E-01  -.17052993E-02
0.38651791E-01  0.68262740E-01  0.55711842E-01  -.17274718E-02
0.38789524E-01  0.68326136E-01  0.56065360E-01  -.17498439E-02
0.38927260E-01  0.68388554E-01  0.56419816E-01  -.17724166E-02
0.39064997E-01  0.68449914E-01  0.56775212E-01  -.17951910E-02
0.39202738E-01  0.68510136E-01  0.57131554E-01  -.18181682E-02
0.39340482E-01  0.68569144E-01  0.57488846E-01  -.18413494E-02
0.39478231E-01  0.68626864E-01  0.57847164E-01  -.18647381E-02
0.39615984E-01  0.68683228E-01  0.58206526E-01  -.18883358E-02
0.39753741E-01  0.68738180E-01  0.58566802E-01  -.19121397E-02
0.39891504E-01  0.68791650E-01  0.58927932E-01  -.19361491E-02
0.40029272E-01  0.68843586E-01  0.59289872E-01  -.19603637E-02
0.40167047E-01  0.68893926E-01  0.59652606E-01  -.19847838E-02
0.40304827E-01  0.68942620E-01  0.60016118E-01  -.20094100E-02
0.40442615E-01  0.68989618E-01  0.60380418E-01  -.20342434E-02
0.40580411E-01  0.69034874E-01  0.60745538E-01  -.20592862E-02
0.40718215E-01  0.69078344E-01  0.61111526E-01  -.20845408E-02
0.40856027E-01  0.69119982E-01  0.61478440E-01  -.21100100E-02
0.40993847E-01  0.69159752E-01  0.61846340E-01  -.21356968E-02
0.41131677E-01  0.69197616E-01  0.62215286E-01  -.21616042E-02
0.41269516E-01  0.69233540E-01  0.62585328E-01  -.21877348E-02
0.41407365E-01  0.69267494E-01  0.62956510E-01  -.22140914E-02
0.41545223E-01  0.69299448E-01  0.63328856E-01  -.22406760E-02
0.41683091E-01  0.69329380E-01  0.63702386E-01  -.22674902E-02
0.41820968E-01  0.69357268E-01  0.64077100E-01  -.22945356E-02
0.41958855E-01  0.69383098E-01  0.64452988E-01  -.23218126E-02
0.42096753E-01  0.69406858E-01  0.64830032E-01  -.23493220E-02
0.42234659E-01  0.69428532E-01  0.65208122E-01  -.23770614E-02
0.42372575E-01  0.69448098E-01  0.65587052E-01  -.24050248E-02
0.42510501E-01  0.69465566E-01  0.65966914E-01  -.24332162E-02
0.42648436E-01  0.69480940E-01  0.66347756E-01  -.24616384E-02
0.42786380E-01  0.69494236E-01  0.66729632E-01  -.24902942E-02
0.42924332E-01  0.69505474E-01  0.67112574E-01  -.25191860E-02
0.43062294E-01  0.69514672E-01  0.67496620E-01  -.25483162E-02
0.43200264E-01  0.69521794E-01  0.67881990E-01  -.25776934E-02
0.43338242E-01  0.69526890E-01  0.68268632E-01  -.26073172E-02
0.43476229E-01  0.69530014E-01  0.68656464E-01  -.26371860E-02
0.43614224E-01  0.69531214E-01  0.69045428E-01  -.26672988E-02
